1733

1730

1730

1727

1610

1691

1207

1106

768

1330

1306

1342

1398

1211

1102

1155

1013

967

1184

1230

1379

1113

1006

1314

1462

1889

1508

1509

1472

1328

1375

1555

1333

1367

1184

1558

1972

1712

1645

1205

1337

1023

829

659

656

816

809

655

661

444

79

0

0

0

0

260

1105

2224

2917

3041

3253

2960

2555

1725

721

0

0

0

0

0

0

0

0

0

0

0

0

0

0

0

0

0

0

0

0

0

0

0

0

0

0

0

0

0

0

0

0

0

0

0

0

0

0

0

0

0

0

0

0

0

0

0

0

0

0

0

0

0

0

0

0

0

0

0

0

731

836

901

907

1139

1230

1284

1011

1226

1360

1499

1330

1486

1664

1599

1633

1403

1535

1495

1968

1642

1520

1360

1310

1323

1653

1742

1488

1685

1956

1759

1866

2079

2217

2109

2064

2134

1949

1955

2085

1974

2059

1981

1803

2062

2228

1854

2129

2000

1687

1656

1664

2033

1873

1904

1914

1625

1737

1854

1616

1648

1805

1773

1424

1255

1063

1115

1383

1839

1915

1667

1296

1342

1091

951

986

684

900

1095

1006

859

1178

1062

932

1309

1136

1225

912

1086

1194

1347

1328

1244

1440

1648

1783

1808

1975

1979

2098

2199

2272

2533

2466

2481

2353

2243

1990

2032

2411

2339

2288

2173

2630

2501

2570

2388

2297

2413

2366

2416

2258

1969

2091

1909

1808

1971

2064

2061

2011

1995

1761

1554

1363

1593

1763

2014

2001

2098

2066

2186

2045

2086

2057

2173

2288

2153

2189

2277

2209

2357

2417

2298

2278

2362

2432

2495

2399

2389

2318

2192

2339

2387

2204

2576

2481

2619

2719

2747

2737

2759

2800

2791

2672

2704

2588

2624

2507

2309

2426

2521

2512

2229

2092

1915

2153

2226

2250

2143

2106

2001

1744

2192

2070

2004

2039

2115

2118

2149

2117

2219

1982

2019

1584

1635

1870

2030

1962

2117

2249

2242

2063

2014

2165

1904

1776

1757

1797

1984

1983

1990

1824

1722

1908

1711

1872

1479

1450

1456

1503

1655

1520

1442

1363

1451

1558

1843

1866

1927

2130

1870

1777

1845

2068

1862

2009

1818

1577

1917

1725

1699

1803

1899

1718

1808

1710

1930

2021

1914

1797

1679

1910

1614

1523

1520

2073

2169

2496

2512

2654

2802

2873

2691

2607

2571

2785

2975

2929

2960

2625

2707

2354

2176

2169

1989

2058

2320

1954

1875

1808

1744

1758

1765

1654

1663

1456

1264

1424

1467

1338

1585

1557

1531

1648

1680

1815

1714

2096

2081

2288

2334

2256

2203

2137

2256

2254

2405

2336

2498

2652

2293

2812

2978

3184

3327

3241

3358

3147

3110

2860

2993

3053

2862

2879

2593

2415

2230

2192

1812

1568

1426

1089

1627

1842

1846

1600

1589

1325

1250

1363

1453

1369

1055

1296

1308

1253

1010

1205

1149

1119

1036

1071

1005

961

1114

826

977

948

1199

1104

983

1010

1396

1378

1402

1785

1614

1599

1569

1569

1619

1776

1671

1578

1565

1598

1439

1648

1669

1572

1663

1377

1488

1583

1461

1714

1584

1413

1684

1761

1456

1695

1872

2032

1769

1948

1968

1749

1412

1283

1764

1963

2000

1815

2026

2167

2199

1953

1955

2013

1790

1617

1955

2111

2141

2085

2071

1891

1918

1872

1649

1638

1681

1739

1554

1742

1577

1619

1697

1824

1821

1719

1866

1981

2101

2125

2013

1975

1936

2170

1936

2122

1931

1744

1855

1781

1919

1761

1851

1666

1750

1455

1444

1646

1638

1252

1371

1454

1375

1598

1917

1695

1653

1636

1726

1649

1659

1233

1371

1523

1710

2115

2109

1970

1988

1759

1690

1899

1824

1844

1790

1671

1638

1746

1978

1938

1831

1818

1595

1600

1693

1679

1699

1693

1659

1648

1776

1782

2066

2160

2224

2224

2178

2397

2593

2231

2279

2421

2178

2283

2227

2323

2293

2319

2103

2226

2112

2159

2031

2007

1946

2018

1967

2079

2000

1731

1644

1873

1892

1895

2069

2077

1973

1953

2192

1891

1681

1433

1634

2400

2148

2175

2206

1914

2126

1909

2000

2071

1690

1814

1856

1866

1878

1772

1711

1616

1693

1680

1594

1520

1757

1653

1630

1427

1555

1671

1801

2004

1717

1902

2261

2235

2197

2106

2001

2097

2327

2259

2160

1917

2103

2159

1942

2090

1961

1902

2032

2096

2268

2015

1843

1797

2042

1875

1867

1878

1993

1893

1986

1839

2114

1982

2055

2110

1789

1601

1553

1818

2181

2384

2324

2218

2157

2112

2006

1953

2167

2000

1767

1788

1929

1837

1751

1883

1774

1785

1814

1781

1691

1725

1445

1734

1861

1830

1610

1542

1951

2103

1859

2243

2469

2409

2153

2291

2066

2271

2224

2270

2119

1954

1969

2033

1975

2057

2241

1996

2211

2199

2015

1968

2122

1966

1714

1906

2161

2279

2147

2480

2266

2060

1898

1863

1765

1987

2310

2373

2378

2218

2307

1904

1968

1891

1809

1911

1585

1889

1837

2039

1931

1980

1833

1891

1842

1678

1986

1824

1579

1872

1825

1660

1759

1712

1833

1829

2015

2243

2386

2335

2350

2172

2331

2261

2285

1985

2059

2255

2066

2174

2329

2298

2224

1889

1926

1947

1942

1981

1902

1986

1899

2047

2094

2100

2208

2197

2038

1870

1766

1944

2345

2627

2460

2127

2134

2039

1954

1904

1937

2128

1825

1827

1799

1738

1894

1648

1602

1786

1687

1563

1706

1682

1493

1658

1719

1529

1546

1701

1669

1953

1909

2126

2293

2483

2320

2286

2225

2078

2091

2122

2125

2329

2468

2133

1890

1846

1913

2087

2054

2062

1891

2026

1920

1758

1929

2273

2046

2139

2055

1835

2031

1825

1690

1749

2196

2466

2171

2039

2061

1959

1723

1983

2039

1866

1700

1723

1840

1925

1767

1782

1719

1490

1794

1796

1662

1697

1593

1543

1491

1342

1728

1716

1648

1963

2290

2205

2062

2147

2046

2094

2165

2394

2311

2162

1911

1957

1954

2141

2123

1856

1930

1801

1856

1946

2069

1888

1991

1826

1855

1835

1909

1920

2358

2336

2401

2131

1788

1648

1742

1953

2343

2339

2195

2266

2158

2074

1935

2302

2054

2286

2032

2042

2018

1963

2062

2131

1923

2135

2146

2094

2076

1759

1874

1853

1899

1866

1969

2081

1951

2045

2231

2059

2193

2130

2130

2352

2347

2163

2128

1956

1838

1853

2157

2398

2259

2167

2032

2001

1990

1851

1861

1929

1765

1937

1904

2039

2035

2128

2103

1923

2069

1971

1749

1584

1589

1894

2106

2255

2505

2179

2180

2215

2128

2086

1863

1904

2043

2078

1902

1862

1855

1947

1872

1821

1858

1808

1866

1851

1729

1643

1729

1888

1712

2100

2143

1991

2173

2111

2282

2192

2037

2182

2111

2333

2304

2143

2149

2309

2201

2101

2101

1973

2214

2282

2374

2343

2167

2085

2031

2043

1979

2350

2559

2439

2545

2489

2405

2290

2315

2123

1723

1711

2011

2334

2335

2371

2112

2225

2288

2214

2045

2095

1987

2163

2206

1984

2039

1854

1899

1776

1936

1846

1952

1871

1731

1705

1677

1733

1765

1745

1858

1906

1907

2025

1897

2085

2145

2195

1958

2151

2183

2333

2256

2231

2046

1972

2173

2063

1959

2151

2027

1948

1974

2095

1919

1647

1934

2000

2119

2242

2212

2053

2096

2123

1984

2004

1621

1433

1890

2241

2369

2350

2302

2346

2334

2353

2194

2154

2177

2190

2224

2059

2228

1993

1969

2034

1770

2055

2000

1803

1825

1797

1698

1776

1773

1791

1810

1888

1855

2128

2327

2606

2441

2317

2480

2436

2386

2323

2175

2224

2209

2385

2275

2319

2181

2042

2025

2160

2070

2109

2141

2064

2087

2093

1874

1870

2087

2087

2041

2082

2047

2141

2064

2083

2031

1754

1535

1457

1856

1883

2306

2380

2272

2343

2154

1936

2133

2004

1908

2165

2041

1779

1853

1764

1643

1829

1999

1646

1795

1600

1515

1595

1705

1495

1552

1821

1555

1617

1783

1936

1877

2047

2298

2170

2195

2159

2195

2000

2175

1965

2001

2112

2053

2130

1984

1808

1936

1994

1903

1702

2000

2017

1743

1744

1609

1421

1639

1665

1662

1799

1873

1862

1841

1513

1406

1724

1392

981

1087

1199

1609

1850

1931

2009

1854

1887

1793

1674

1744

1823

1819

1938

1664

1649

1488

1470

1522

1627

1648

1454

1526

1581

1183

1238

1434

1359

1637

1657

1750

1744

1792

1988

1995

2117

1846

2007

1940

2063

2014

2012

1849

1933

1932

1900

1839

1937

1894

1883

1900

2058

1813

2031

1965

1853

1652

2022

1936

1785

1751

1721

1628

1660

1990

2058

2019

2060

1861

1954

1825

1648

1350

1547

1968

2385

2513

2187

2030

2112

2090

2021

1918

1930

1999

1770

1705

1660

1729

1962

2016

1702

1716

1514

1458

1472

1775

1850

1684

1739

1739

1627

1631

1814

1728

1851

2147

2064

2066

2061

2131

2196

2100

1984

1903

1946

1960

1840

1967

1942

1831

1648

1905

1750

1902

1845

1934

1745

1503

1633

1833

1845

2023

1974

1936

2002

1936

1759

1808

1406

1475

1815

2249

2145

2215

2146

1979

1947

1945

1808

1767

1865

1616

1655

1569

1792

1807

1819

1776

1429

1638

1681

1612

1439

1501

1600

1683

1734

1615

1613

1716

1989

2026

2082

2368

2269

1936

1889

2032

2082

2196

2089

2031

1885

1881

1782

1954

1890

1917

1915

1904

1629

1622

1507

1712

1906

1869

1904

1882

1872

1921

1984

1872

2007

2115

1847

1518

1367

1679

1885

1973

2073

2070

1858

1769

1583

1584

1843

1917

1903

1524

1662

1726

1522

1535

1864

1744

1859

1792

1842

1595

1616

1715

1797

1885

1935

2013

1773

2053

1990

2158

2295

2335

2241

2115

2007

2246

1994

2026

2204

1840

1979

1909

1979

2062

1963

1949

1979

1854

2029

1936

1731

1701

1823

1733

1641

1872

1871

1968

1747

1776

1907

1746

1527

1817

2032

2300

2111

2215

2395

2203

2139

2113

1991

1959

1936

1919

2065

1982

2141

1734

1721

1770

1667

1638

1772

1714

1654

1488

1477

1587

1508

1791

1824

1702

1738

1846

1936

1999

1982

2112

2070

1904

1990

2128

1872

1902

1879

1786

1473

1687

1747

1989

1998

1895

1888

1770

1796

1761

1793

1505

1613

1861

1660

1844

1829

1758

1973

2057

1893

2000

2032

2029

2197

1995

1680

1601

1443

1587

2116

2229

1973

2059

2126

1953

2107

2032

2107

2021

1849

1886

2033

1934

2055

1868

1819

1661

1715

1739

2011

1670

1973

1775

1703

1631

1583

1734

1841

1911

1909

2023

2227

2119

2064

1991

2218

2194

1968

2289

2259

2201

2032

2019

2080

2172

2043

1866

2256

1931

1794

1813

1798

1927

1913

1901

1907

2128

1763

1966

1875

1904

1747

2112

2015

1762

1907

2007

2039

2193

2213

2038

2314

2288

1974

1870

1577

1585

1938

2005

2063

2259

2334

1975

1937

1913

2027

2017

2160

1958

1994

1903

1766

1919

2151

2030

1909

1903

1847

1393

1584

1827

1875

1762

1876

1749

1732

1839

1904

1936

2171

2432

2288

2194

2082

1986

2173

2094

2191

2428

2109

1862

1967

2097

2035

2150

2160

2037

1910

1817

1847

2006

1885

1860

1731

1745

1584

1457

1405

1559

1270

1303

1438

1425

1406

1739

1961

2055

2097

2006

1418

1083

1407

1878

2333

2483

2576

2301

2279

2512

2419

2473

2365

2223

2178

2190

2047

2081

2195

1819

2064

1999

2023

1728

1683

1633

1457

1644

1648

1488

1534

1545

1594

1629

1612

1727

1835

1941

2064

2013

2127

2102

2010

1689

1867

1744

1583

1730

1835

1878

1643

1716

1722

1792

1626

1737

1682

1894

1945

1843

1694

1760

1855

1742

1831

1854

1867

1908

2086

2160

2182

2414

2352

2023

1887

1595

1459

1829

2346

2242

1985

2207

2290

1998

2166

2043

1835

1969

1929

2019

2035

1951

2009

1991

2109

1702

1558

1797

1607

1586

1584

1584

1483

1666

1774

1806

1895

1744

2029

2035

2493

2486

2268

2094

2240

2175

2257

2198

2167

2477

2232

2203

2000

1744

2288

2194

2179

1919

2013

1898

1959

2123

1935

1885

1905

2014

1930

1904

1680

1850

1587

2037

1834

1873

1766

2055

2143

2031

1808

1370

1241

1264

1984

2305

2109

2166

2251

2098

1808

1885

2005

1805

1760

1954

1807

1855

2176

2000

1998

1744

1714

1713

1707

1818

1706

1759

1597

1746

1749

1695

1690

1860

1840

1574

1651

1607

1549

1219

1185

898

881

731

737

834

650

717

646

673

766

701

812

1073

1072

1067

1301

1193

1136

1113

995

1298

1220

1104

1331

1577

1566

1865

1884

1790

1779

1877

1584

1325

1333

1302

1424

1742

1829

1821

1823

1839

1923

2080

1823

1855

1994

1991

1961

1943

2127

2041

2413

2182

2202

2089

1905

1971

1802

1819

1618

1808

2000

2234

2209

2442

2544

2485

2545

2640

2834

2785

2594

2623

2769

2800

2688

2518

2331

2439

2229

2416

2317

2215

2370

2064

1995

1880

1871

1873

1837

1835

1903

1746

1594

1648

2044

1760

1815

1863

1891

1822

1681

1259

1290

1507

1854

2153

2263

1993

1840

1931

2186

1968

2001

1962

1923

1872

1809

2011

2172

2006

1883

1921

1961

1939

1990

1900

1885

1630

1732

1683

1692

1819

1773

1723

1832

1743

1846

2090

1984

1517

1664

1652

1488

1555

1639

1551

1511

1476

1359

1457

1215

1040

1104

1157

1304

1165

1186

1228

1185

1323

1386

1436

1621

1533

1723

1503

1328

1308

1321

1378

1504

1679

1930

1822

2018

2103

1983

1827

1702

1860

1943

1941

2201

2304

2101

1949

2192

2230

1968

2002

1746

1917

2016

1793

1881

1562

1243

1597

1620

1875

1921

1862

1846

1883

1970

1767

1671

1526

1715

1677

1755

1699

1575

1729

1761

1613

1651

1706

1495

1699

1591

1722

1751

1681

1738

1890

1790

1724

1600

1951

1769

1940

1920

1693

1296

1749

1958

2265

2093

2121

2096

1899

1962

1886

1922

1994

1810

1830

1730

1649

1722

1665

1808

1716

1569

1328

1487

1778

1473

1518

1406

1393

1571

1362

1514

1593

1815

2113

1987

2197

2076

1918

1753

2031

2023

1712

1968

1989

1883

2096

1841

1937

1737

1774

1903

2131

1955

1874

1557

1622

1589

1773

1930

2281

2190

2000

1941

1903

1907

1859

1454

1672

1925

2234

2402

2165

2068

2235

2155

1968

2299

2190

2192

1911

1872

2102

1968

1794

1959

1781

1584

1680

1719

1523

1535

1555

1608

1471

1600

1759

1859

1689

1717

2173

2270

1979

2070

2162

2152

2007

2214

2082

2055

1718

2053

2053

2142

1973

1921

1999

2176

1946

2001

2160

2073

1775

1776

1907

1993

1887

1838

1974

2103

1937

2010

2011

2032

2023

1583

1570

1765

1998

2046

2078

1984

1945

1936

1913

1904

1792

1787

1849

1858

1968

1826

2069

1904

1871

1701

1735

1707

1809

1842

2059

1907

1978

1873

1667

1790

1609

1789

1934

2032

2101

2201

2112

2015

2021

2076

2074

2008

2031

2086

2078

2090

2064

1860

1998

1829

1955

1871

1881

1818

1870

1975

1845

2090

1988

1965

1838

1953

2211

2123

2147

2144

2006

1535

1707

1919

2197

2334

2157

2287

2289

2045

2096

2363

2414

2139

2215

2017

1970

1866

2138

1915

2046

1858

2075

1927

1883

1883

1741

1689

1815

1899

1561

1682

1808

1879

1995

1936

2201

2235

2199

2156

2165

2246

2290

2121

2134

2156

2242

2067

2143

1970

2288

2128

2112

2039

1959

1946

1872

2011

2011

2027

1744

1901

2127

2300

2129

2095

2135

2018

2096

1867

1529

1551

1917

2112

2320

2370

2160

2022

2061

1808

1823

1791

1649

1722

1677

1479

1382

1395

1369

1595

1403

1420

1440

1648

1394

1569

1731

1807

1775

1829

2164

2250

2352

2618

2467

2330

2661

2871

2543

2626

2720

2448

2219

2358

2518

2568

2410

2382

2427

2343

2305

2432

2497

2352

2241

2237

2224

2128

2355

2188

2288

2190

2159

2429

2512

2246

2531

2370

2010

1485

2003

2529

2463

2469

2411

1971

2330

2491

2538

2437

2327

2177

2144

2097

2188

2144

2033

2174

2106

1919

1797

1795

1936

1880

1947

1893

1776

1833

1822

1924

2067

2285

2071

2199

2334

2362

2242

2258

2156

2336

2261

2192

2154

2266

1966

2182

2203

2386

2206

1836

1968

1813

2081

1978

2026

1866

1799

1690

1937

2087

1895

1967

1893

2224

1945

1791

1280

1339

1626

2069

2151

2330

2263

2213

1983

2103

1878

1971

2000

2102

2170

2118

2005

1887

1841

1871

1955

1757

1925

1562

1568

1563

1613

1573

1647

1737

1573

1876

1801

1899

2073

2221

2208

2357

2141

2063

2096

2256

2303

2096

1978

2079

1985

2023

2096

2150

2085

1838

2202

1648

1906

1879

1904

1616

1785

1898

1822

2157

2107

1891

2147

2081

1861

1597

1377

1494

1738

2225

2177

2096

2219

2164

2000

1992

1968

1814

1960

1974

2117

2038

1849

1854

1766

1691

1715

1742

1563

1520

1672

1503

1390

1429

1583

1456

1514

1663

1633

1807

2043

2096

2032

2082

2159

2029

2176

2142

2126

2027

2039

2035

1920

2064

2062

1930

2077

2077

1985

1883

1966

1730

1917

1827

1717

1887

2013

2047

1981

1984

2067

2026

1967

1706

1670

1499

1707

1971

2261

2011

1986

2031

2113

2143

2037

1789

1840

1949

1714

1795

1761

1881

1799

1751

1839

1648

1616

1558

1593

1659

1597

1759

1655

1806

1750

1931

1999

2183

1995

2071

2186

2126

2158

2155

2147

2083

1877

1990

2034

2161

2195

1944

2095

1872

2077

2159

1999

1931

2171

1889

2022

1904

1904

2183

2113

2089

2135

2154

2235

2183

1973

1869

1765

1798

2183

2490

2522

2217

2256

2294

2224

1979

1999

2007

2018

1940

1888

1861

2035

1835

1956

1967

1712

1472

1746

1850

1899

1737

1612

1773

1744

1936

1925

1990

1503

1887

1840

1998

2098

2246

2070

2037

2026

2128

2035

2089

1978

1967

1946

1991

1858

2078

1911

1878

2006

1903

1916

1871

1836

1824

1809

1974

2091

2224

2162

1967

1687

1595

1513

1745

2126

2288

2283

2151

2110

2035

2089

2001

2032

2064

2119

2023

2092

2174

2130

2243

2362

2186

2167

2271

2020

1984

1883

1952

1936

1914

1937

1997

1776

1783

1987

2135

2064

2409

2159

2464

2487

2291

2202

2314

2198

2038

2090

2016

2064

1977

2093

1997

1971

2145

2087

2125

1962

1957

2053

2028

2115

2150

2200

2239

2152

2279

1877

1829

2023

2256

2222

2336

2090

2122

1994

1855

1787

2032

2103

1967

1821

1687

2079

1823

1945

1899

1973

1949

1771

1774

1744

1640

1743

1714

1661

1749

1967

2065

1959

2162

1867

2003

2079

2164

2195

2103

2045

2155

2118

2201

2321

2115

2077

1936

2019

2170

2010

2083

2128

2016

1957

2098

2111

2139

1934

1977

2133

1887

2029

1948

1877

1758

1937

2067

2263

2170

1999

2113

2081

2162

2044

2086

2181

2101

1945

2005

1938

1987

1906

2073

1885

1886

1678

1702

1906

1856

1765

1949

1968

1934

1894

2010

1909

2118

2139

2003

2262

2385

2463

2415

2286

2632

2683

2405

2279

2243

2044

2037

1946

1956

2095

2057

2074

2171

2203

2174

2125

2214

2289

2270

2198

2193

2000

2149

2174

2082

2384

2310

2485

2451

2097

2225

2006

2035

2064

2125

2157

1974

2100

2093

2001

1860

1934

2030

1926

1962

1762

1683

1712

1584

1776

1499

1791

1748

1963

2030

2035

2119

1996

2099

2224

2547

2334

2128

2371

2058

2211

2095

2215

2084

2023

2111

1771

2097

2227

2107

2042

1727

1840

1955

1954

2206

2177

2119

1894

1885

1768

1620

1915

2015

2257

2099

2253

2194

1986

2094

2053

2099

1818

1872

1875

1951

1927

1853

1771

1923

1798

1857

1786

2001

1738

1745

1673

1664

1719

1778

1625

1810

1887

1904

2209

2224

2259

2218

2183

2145

2156

2186

2518

2378

2165

2297

1885

2097

2211

2115

2023

2311

2007

2165

2057

2035

2071

2017

2123

2276

2163

2259

2179

1941

1974

1888

2209

2251

2242

2353

2240

2416

2451

2101

2162

2128

1943

2121

2192

2112

1969

2087

2197

2119

2109

2055

1819

2066

1675

1607

2037

1980

1975

1991

1754

1872

2206

2250

2041

2259

2091

2293

2336

2507

2371

2144

1923

1973

1929

1995

2070

2211

1871

1890

2057

1990

1761

1960

1984

1917

1497

1856

1902

1918

1851

2107

1830

1955

1865

1923

1742

1435

1649

1696

1931

1856

1946

2032

1957

1901

1868

1742

1716

1729

1793

1573

1671

1811

1681

1569

1712

1430

1550

1650

1383

1499

1694

1739

1424

1527

1587

1664

1767

1744

2025

2385

2081

2037

1965

2083

1842

1811

2003

2012

1930

2128

1920

1895

2096

2102

2025

1968

1961

1958

1833

1862

2087

2093

1734

1797

1899

1981

1859

1902

1822

1936

1821

1954

2201

1810

1655

1483

1431

1867

2018

2089

1968

1893

2031

1711

2061

2020

1907

2024

1757

1776

1861

1776

1814

1648

1758

2006

1776

1767

1603

1557

1483

1488

1552

1797

1845

1854

1791

1787

1549

1791

1933

1904

1835

1885

1892

1994

1965

1987

1729

1663

1859

1786

1639

1744

1770

1957

1767

1579

1828

1710

1791

1877

1838

1792

1623

1697

1658

1497

1517

1488

1503

1629

1499

1611

1631

1683

1687

1727

1718

1437

1315

1194

1397

1726

1771

1677

1726

1826

1968

1803

1691

1713

1805

1590

1594

1795

1865

1673

1755

1618

1648

1424

1470

1520

1807

1795

1604

1489

1600

1573

1574

1643

1700

1618

1693

1665

1729

1750

1607

1772

1785

1797

1741

1728

1605

1643

1703

1584

1609

1596

1626

1403

1630

1471

1526

1660

1968

1619

1459

1375

1584

1443

1353

1458

1684

1415

1392

1603

1680

1616

1825

1895

1600

1412

1136

1232

1525

1733

1889

1751

1698

1839

1948

1745

1742

1821

1605

1841

1941

1786

1807

1818

1641

1526

1381

1589

1680

1409

1680

1476

1631

1633

1640

1413

1725

1753

1612

1737

1797

2127

1702

2000

1881

2063

1969

1875

1792

1833

1961

1741

1616

1872

1773

1753

1690

1604

1587

1790

1792

1849

1557

1589

1607

1615

1502

1565

1616

1898

1968

1922

2005

1955

1939

1809

1839

1296

1043

1186

1506

1824

1862

1712

1920

1586

1707

1652

1693

1586

1762

1574

1483

1584

1555

1515

1782

1648

1527

1409

1549

1555

1589

1655

1611

1546

1199

1204

1161

1686

1790

2141

2148

1744

1971

1937

1845

2042

1925

2010

1950

1680

1822

1711

1616

1810

1814

1519

1764

1939

2014

1724

1730

1488

1698

1803

1497

1598

1652

1648

1567

1597

1840

2092

1818

1974

1879

1319

1142

1296

1561

1833

2016

1904

1958

1987

1958

1785

1907

1645

1681

1507

1497

1569

1776

1681

1608

1424

1295

1363

1328

1279

1136

1132

1151

1089

1059

1083

1241

1348

1584

1488

1717

1810

1808

1932

2112

2012

2026

1909

1901

1808

1755

1648

1947

1957

2046

1931

1904

1866

1706

1790

1879

1801

1712

1490

1611

1488

1648

1888

1920

2001

1759

1987

1909

1651

1411

1186

1414

1959

2307

2198

2064

2074

2288

2144

2374

2185

2218

2309

2160

2163

2259

2241

2240

2163

2070

2169

2221

1998

1756

1803

1653

1617

1906

1766

1569

1610

1575

1545

1965

2160

2167

2121

2043

2091

2032

1916

1919

1747

1885

1759

1771

1634

1574

1723

1920

1664

1713

1565

1837

1729

1733

1789

1829

1831

1913

1845

2145

2206

2107

2047

1747

1856

1456

1431

1952

2342

2384

2278

2206

2138

2339

2358

1968

2002

1786

2007

1840

1801

1879

2086

2062

1665

1842

1810

1795

1514

1789

1656

1545

1561

1507

1489

1508

1699

2091

2130

2046

2213

2046

2002

2197

2196

2112

2023

1829

1828

1787

1632

1857

1747

1515

1343

1373

1362

1365

1504

1465

1104

1153

1077

1217

1401

1374

1334

1456

1296

1085

1135

829

485

592

731

1311

1098

1222

1228

1046

1374

1242

1086

1053

1028

1111

1278

1115

1194

1188

1031

1201

1271

1449

1008

1175

1142

899

1213

1159

1143

1190

1284

1131

1309

1616

1744

1621

1890

1855

1840

1731

1666

1645

1794

1679

1935

1941

1894

1664

1873

1819

1806

1846

1718

1520

1610

1648

1586

1872

1648

1663

1797

1943

1809

1578

1281

966

1054

1327

2016

1968

1873

1915

1798

1687

1839

1667

1520

1589

1228

1475

1477

1387

1609

1636

1577

1283

1319

1187

1190

1153

1457

1239

1315

1271

1168

1408

1393

1524

1769

1696

1919

1959

1991

1888

2096

1954

1600

2013

1840

1904

1793

1863

1855

1661

1936

1823

1893

1706

1785

1825

1458

1846

1978

1983

2060

1874

1907

1734

1907

1736

1587

1948

2349

2339

2199

2000

1810

1906

1807

1955

1840

1936

1950

2094

1910

1967

1893

1911

1777

1861

1893

1701

1560

1510

1718

1657

1600

1584

1424

1246

1525

1606

1811

1848

1911

1985

1853

1840

1858

1936

2065

2038

2080

2148

1862

2225

1969

1974

2103

1851

1991

1856

1947

2187

2186

2272

2205

1969

2210

2064

2110

2053

2091

1981

1949

2224

2226

2400

2306

2433

2278

2075

1808

1904

1937

2066

2211

2105

2115

1909

2064

2058

2130

2101

2016

2383

2545

2421

2421

2475

2679

2482

2704

2655

2706

2817

2816

2848

2896

2858

2613

2613

2494

2543

2390

2122

2118

2124

1984

1782

1839

1759

1722

1692

1775

1645

1616

1702

1769

1663

1847

1921

1909

1968

1792

1487

1580

1882

2234

2165

2128

2245

2057

1898

1739

1895

1957

1894

1925

1977

1840

1885

1872

2006

2032

2028

1750

1685

1853

1711

1505

1493

1727

1520

1553

1455

1625

1745

1822

1966

2128

2160

1962

1862

2014

2038

2058

2023

1741

1690

1805

2007

1881

1947

1917

1900

1579

1842

1907

1769

1981

2195

1815

2003

1879

2032

1749

1614

1664

1636

2053

2331

2055

2012

1902

2010

1940

1859

1910

2033

1938

1805

1725

1873

1714

1935

1728

1493

1577

1627

1367

1626

1456

1611

1678

1717

1431

1567

1549

1765

1894

1916

2112

2189

2077

2077

2246

2031

1955

1988

2164

1853

2110

2018

2091

1955

2053

1857

1911

1808

2036

2034

1905

2078

2004

2064

2085

2223

2117

2096

1887

2161

2139

1791

1431

1935

2357

2305

2338

2288

2095

2097

2304

2081

2075

2000

1873

2272

2205

1754

1814

1861

1925

2171

1919

1723

1842

1873

1680

1794

1845

1520

1579

1774

1872

2096

2055

2044

2117

2090

1991

1891

2225

1951

2173

2207

2218

2003

1913

1719

1832

1797

1979

2013

1939

1758

1921

2109

2063

1888

1872

1863

1701

1574

1950

2187

2147

2191

2120

2045

2131

1975

1767

1562

1600

1556

1940

2155

2151

2358

2041

1930

1953

1968

2221

1943

1948

1911

2027

1920

2043

2026

2057

1894

1840

1975

1905

1851

1933

1970

1801

2018

1766

1779

1783

1911

1965

1967

1926

2011

2089

2355

2092

2096

2211

2119

2245

2098

2092

2059

2126

2304

2334

2141

2426

2209

2302

2179

2198

2233

2170

1985

1970

2039

2017

1930

1974

2064

2061

2091

1963

1862

2113

2270

2082

2157

1973

1734

1487

1562

1782

1920

2290

2282

2240

2174

2142

2132

2110

2275

2157

2086

2017

2005

2160

2128

1917

2013

2128

2166

2102

1970

1831

1680

1761

1776

1918

1725

1708

1722

1711

1661

2109

1936

2060

2005

1934

1895

2181

1920

1911

1806

1979

2065

1952

1962

1875

1904

2005

1826

2105

2114

1824

1926

1998

1873

1822

1971

1961

1900

1778

1562

1827

1951

1954

2114

2064

2195

1941

1986

1836

1466

1170

1458

1973

2192

2160

2238

2164

2192

2307

2175

1946

2004

2025

1843

2158

2347

1875

1988

2071

2035

1983

1789

1777

1732

1810

1686

1659

1664

2034

1566

1793

1910

1989

2087

1962

1982

1950

2093

2070

1991

2032

2111

2103

1905

2002

1712

1774

1914

1840

1942

2004

1811

1725

1729

1805

1923

1973

2005

2020

2022

1898

1840

2204

2342

2429

2330

2269

2160

2238

2276

1919

1728

1469

1792

2269

2674

2619

2517

2482

2601

2385

2447

2583

2256

2157

2176

1997

1791

1941

1869

1637

1795

2025

1979

1871

1574

1629

1713

1535

1517

1616

1403

1675

1783

2032

2007

2001

2003

2133

2149

2197

2081

2125

2160

2226

1947

1867

1967

1840

2038

1893

1968

2037

1958

1856

2162

2084

1911

2033

2001

1887

1694

1596

1761

1746

1917

1843

1722

1645

1673

1751

1305

844

721

1126

1454

1766

1936

1982

1776

1829

1658

1673

1938

1775

1618

1638

1686

1714

1613

1502

1742

1651

1409

1397

1438

1662

1587

1522

1664

1686

1751

1766

1757

1639

1915

2000

2331

2239

2205

2235

2000

2096

2289

2208

1970

2218

1989

2034

2184

2183

1969

1863

2055

2029

1932

1973

1889

1936

1899

1847

1856

1849

1789

1715

1899

2065

1835

2032

1802

1666

1422

1091

1217

1683

2038

2224

2077

2245

2105

1916

1986

1685

1566

1554

1664

1691

1969

1675

1589

1443

1359

1474

1240

1232

1162

1237

1218

1085

1325

1387

1399

1574

1712

2219

2110

2477

2437

2389

2379

2430

2416

2387

2367

2507

2435

2298

2325

2431

2492

2555

2289

2545

2277

2235

2345

2267

2101

2084

2239

2140

2111

2121

2206

2039

2086

1904

1990

2167

2223

1867

1488

1275

1835

2192

2403

2366

2310

2442

2425

2490

2255

2096

2236

2177

2247

2203

2119

2097

2070

2074

1926

2065

2037

1822

1871

1830

1887

2019

1866

1879

1967

2070

2231

2105

2337

2309

2331

2301

2075

2112

2448

2133

2268

2141

2032

2095

2029

2027

2126

2128

2084

2025

2060

2101

2203

1993

1921

1825

1968

1853

1949

1842

1997

2047

2085

2087

1993

1970

1771

1424

1384

1872

2256

2123

2190

2155

2230

2183

2113

1987

2082

2059

2031

2055

1936

1984

2079

1876

1847

1840

1819

1713

1654

1772

1727

1837

1483

1490

1597

1670

1777

1746

1875

1983

1883

1983

1987

2286

2271

2398

2214

2205

2045

2096

1961

2195

2081

2018

1947

1874

2032

2013

2078

1779

1680

1711

1942

1915

1900

2000

2150

2160

1938

1811

1395

1554

1809

2018

2032

2002

2046

1919

2030

1986

1819

1875

1754

1795

1808

1840

1959

2000

1808

1889

1913

2034

2022

1777

1749

1712

1602

1503

1515

1519

1787

1818

1648

1891

2076

2141

2188

2214

2261

2177

2086

1919

1918

1918

1830

1927

1840

1809

1995

1761

1904

1863

1702

1742

1840

1858

1831

1744

1833

1829

1922

1843

1872

1990

1938

1577

1633

1872

2031

2266

2254

2241

1951

1985

1783

2112

1805

1776

1807

1984

1926

1968

1872

1965

1957

1965

2037

1679

1813

1888

1744

1951

2024

1968

1965

1926

1919

2066

2437

2466

2443

2496

2352

2023

2284

2160

2162

2230

1979

2017

1870

1862

1984

1944

1790

1760

1739

1877

1856

1795

1951

1797

1832

1877

1939

2016

1887

1694

1769

1551

1506

1589

1808

2000

2011

2105

2045

1994

1841

1708

1872

1693

1910

1835

1897

1825

1921

1851

1641

1599

1510

1494

1587

1491

1488

1494

1552

1398

1456

1438

1614

1713

1770

1811

1737

1936

1828

1849

1827

1915

1771

1877

1847

1710

1825

1881

1760

1618

1675

1840

1776

1739

1856

1786

1622

1748

1671

1665

1667

1918

1968

2169

1985

1829

1802

1650

1662

1645

1765

1840

2082

1970

1970

1820

1939

2043

1931

1889

2010

1921

1775

1670

1884

2096

1692

1738

1846

1808

1883

1849

1791

1673

1702

1612

1685

1744

1876

1969

1863

1873

1989

1995

1926

2064

2251

2279

1971

1968

2005

1717

1766

1737

1825

1683

1674

1801

1743

1765

1808

1699

1825

1759

1810

1882

1840

1810

1755

1905

1776

1926

2029

2336

1982

1986

1831

1509

1473

1905

2230

2110

2142

1936

2148

2178

2127

2075

2233

2064

2083

2011

2018

2000

1973

2064

1872

1855

1783

1588

1659

1710

1680

1733

1586

1763

1749

1744

1711

1986

1934

1973

2158

2155

2054

2070

1957

2061

2193

1981

1910

1995

2032

2159

2126

2003

1968

2011

1981

1863

1856

1680

1959

1886

1796

1743

2047

1966

1951

1991

1943

2074

2127

1969

1851

1553

1664

1859

1885

1881

2012

1933

2023

2102

2207

2083

2112

1946

1936

1883

1839

1809

1913

1791

1936

2031

1872

1694

1407

1616

1618

1599

1705

1648

1589

1607

1878

1982

1947

1802

1838

1963

2031

2156

2146

2214

2004

1941

1886

1917

2013

1890

1813

1814

2000

1714

2059

2003

1861

1872

2046

1907

1758

1884

1849

1701

1857

1861

1962

1878

1950

1822

1755

1621

1551

1486

1843

2045

1947

1808

1805

1968

2010

1983

1962

2011

1973

1759

1805

1834

1901

1939

1875

1728

1686

1733

1721

1667

1684

1761

1616

1555

1483

1645

1683

1669

1797

1923

1998

2041

1789

1857

2074

2094

2231

2237

2012

1898

1936

1847

2010

2005

2044

2071

1892

1867

1898

1827

1811

1715

1740

1662

1858

1986

1872

2074

1984

1897

1870

2083

1955

1830

1444

1445

1700

2021

2146

2163

2127

2219

2155

2047

2095

2246

2098

1943

1936

1789

1910

1807

1814

1808

1825

1775

1679

1691

1785

1680

1521

1473

1482

1712

1684

1946

1734

1925

2073

2081

2083

2066

2213

2077

2023

2008

2162

2192

1868

1891

2019

2053

1984

1865

1905

1917

2011

1893

1822

1832

1578

1567

1637

1934

2136

1987

1872

1939

2081

1889

1702

1390

1524

1879

2058

2141

2145

1895

2089

2192

2118

2183

1942

1958

1797

1808

1851

1798

1671

1802

1933

1803

1771

1587

1527

1503

1769

1747

1455

1680

1593

1469

1788

1926

2102

2087

2097

2167

2256

2203

2128

2213

2151

2137

2057

2023

1965

1968

2103

2103

1978

1894

2047

2015

1831

1946

1845

1859

1920

1935

2062

2047

2176

2165

2054

2145

1775

1647

1351

1594

2197

2374

2510

2483

2487

2522

2395

2282

2260

2129

2247

2128

2304

2120

2147

1841

1972

1913

1975

1836

1774

1615

1647

1645

1552

1395

1579

1702

1793

1822

2077

2165

2299

2354

2480

2459

2537

2312

2334

2179

2215

2173

2320

2327

2046

2197

2207

2221

1955

1776

1837

1813

1926

1961

2025

2110

1957

1891

2062

1993

1993

2035

1739

1372

1279

1745

2112

2112

2129

2032

1703

1927

2026

1858

1808

1758

1744

1699

1865

1842

1797

1776

1965

1691

1669

1703

1700

1363

1472

1363

1463

1430

1425

1576

1715

1814

1849

1758

2092

2031

2082

2070

2160

2177

2067

1869

1891

2053

1995

1946

2029

1815

2064

1915

2003

2002

1839

1894

1883

1904

1858

1842

2015

2106

2155

2114

2000

1745

1358

1300

1614

2047

1971

2233

2138

1991

2133

2075

1856

1914

1811

1923

1894

2235

2047

1882

1931

1782

1584

1693

1759

1727

1585

1414

1443

1661

1664

1495

1474

1733

1776

1727

1733

1823

1942

2032

2129

1840

1904

2001

1935

1855

1897

1840

1883

1793

1728

1869

1739

1905

1742

1877

1821

1824

1744

1829

1904

2000

1792

2032

2038

2018

1602

1165

1134

1418

1910

2027

2005

2224

2192

1968

2101

2224

2362

2380

2435

2495

2442

2579

2387

2377

2302

2205

2225

2167

2238

2160

1993

2020

1970

1801

1697

1675

1745

1802

1840

1760

1871

1793

1725

1840

1950

1837

1488

1791

1853

1692

1737

1885

1855

1693

1702

1630

1491

1607

1650

1344

1494

1677

1527

1754

1659

1686

1931

1739

1853

1607

1328

1444

1774

2128

2192

1968

1943

2086

1908

1987

1807

1875

1767

1717

1732

1886

1815

1838

1546

1499

1741

1565

1616

1570

1664

1449

1595

1435

1563

1505

1662

1509

1778

1801

1744

1717

1792

1725

2035

1711

1808

1725

1786

1804

1662

1457

1505

1584

1421

1490

1530

1609

1335

1401

1430

1573

1495

1294

1604

1627

1584

1714

1495

1403

1038

1136

1489

1627

1840

1733

1798

1612

1765

1623

1483

1647

1458

1461

1503

1519

1295

1562

1411

1507

1523

1406

1342

1322

1438

1397

1222

1264

1530

1495

1497

1657

1552

1808

1726

1855

1841

1849

1870

2033

1808

1757

1778

2031

1703

1853

1776

1609

1653

1798

1633

1760

1515

1553

1793

1730

1806

1863

1781

1807

2103

1910

1745

1586

1618

1934

2157

2181

2198

1905

2046

1921

1824

1885

1918

1863

1775

1830

2019

1825

1879

1744

1840

1665

1637

1654

1563

1819

1776

1680

1594

1730

1570

1424

1646

1904

1978

1881

1997

2009

2078

2173

2103

2157

2019

2026

1805

2007

2004

1936

1749

1942

1807

1763

1827

1961

1834

1765

1953

1733

2063

2015

2109

1974

1840

1984

1763

1776

1865

2147

2115

2106

2141

2108

2145

2066

1984

1929

2003

1969

1941

1881

1823

1927

1785

1778

1651

1761

1821

1634

1554

1702

1597

1488

1773

1583

1872

1773

1917

2121

2238

2140

2196

2192

2046

2163

1995

2131

2021

2055

1953

2023

1941

2039

1872

1925

1968

1965

1903

1749

1782

1749

1850

1968

2112

2175

1906

1851

1963

1711

1675

1774

2046

2305

2053

2015

1849

2069

1823

1881

1840

1759

1935

1744

1693

1881

1999

1843

1813

1747

1684

1785

1453

1721

1713

1653

1783

1648

1775

1669

1797

1989

1845

1919

2013

2128

2114

2258

2187

2091

2101

2064

2070

2010

2054

1703

1867

1995

1927

1743

1642

1776

1879

1770

1904

1925

2000

1936

1875

1921

1953

1753

1907

1872

1826

1711

1946

2130

1997

2160

2149

2043

2077

2131

1665

2055

2077

1846

1681

2013

1868

1755

1794

1946

1870

1709

1710

1555

1744

1465

1664

1722

1627

1710

1717

1879

1840

1814

2148

2123

2058

2112

2106

2077

2250

2266

2128

2010

1958

2043

2137

2221

2002

2037

2131

2150

1914

2025

2123

2013

1873

2063

1891

2151

2062

2158

2046

2368

2142

2195

2194

2224

2015

1750

1632

1907

2020

2286

2092

2095

2205

2187

2159

1973

1947

2079

2112

2014

2003

2017

2107

2128

2128

1933

1878

1922

1793

1975

1899

1915

2129

2071

1921

2017

2093

2063

2062

2352

2231

2261

2206

2266

2372

2249

2110

2128

2282

2342

2145

2242

2432

2322

2163

2197

2182

2258

2211

2027

2006

1917

1901

2090

2109

2081

2046

2159

2096

2085

2183

2070

1600

1527

1845

2111

2163

2112

2206

2163

2193

2330

2006

2041

2147

1909

2237

2194

2000

1786

1818

1810

1823

1780

1726

1887

1796

1767

1771

1861

1780

1808

1685

1777

2007

1926

2193

2064

2235

2175

2135

2186

2391

2403

2330

2260

2345

2261

2236

2260

2480

2318

2403

2397

2321

2295

2225

2339

2335

2030

1996

2100

2342

2322

2256

2135

2279

2211

2163

1825

1611

1680

1903

2309

2323

2399

2287

2278

2313

2229

2213

2361

2178

2007

1994

1943

2157

2153

2030

2021

1845

1779

2046

1906

1954

1845

1723

1774

1687

1779

1744

2121

2185

2224

2374

2217

2091

2332

2256

2314

2461

2466

2358

2064

2170

2125

2158

2130

2299

2160

2096

2167

1977

2090

2204

2036

2006

2078

2093

2132

2147

2160

2267

2386

2384

2221

2242

1948

1679

1765

2089

2211

2414

2463

2445

2413

2209

2285

2082

2359

2250

2271

2199

1977

2112

2099

1984

1866

1870

1845

1936

1933

1876

2107

2039

1823

1618

1763

2043

2119

2308

2328

2356

2287

2415

2384

2504

2457

2371

2242

2317

2229

2160

2183

2121

2165

2085

2196

2061

2042

1776

1885

1847

1947

1965

1879

1782

1895

1933

1955

1929

1877

1648

1360

1104

1183

1717

1971

2154

2129

2066

1952

1969

1931

2101

2065

1897

1777

1833

1742

1621

1666

1809

1696

1845

1601

1528

1421

1497

1456

1490

1468

1514

1543

1600

1615

1948

2126

2144

2075

2059

2099

2206

1785

2047

2011

1675

1621

1779

1811

1861

1547

1734

1890

1918

1681

1776

1808

1797

1629

1584

1744

1884

1936

1984

2167

2197

2096

1927

1482

1650

2058

2383

2457

2559

2426

2402

2413

2490

2526

2512

2380

2182

2254

2243

2313

2430

2327

2251

2291

2167

2114

1893

1968

2219

2142

1968

2231

2065

2139

2129

2274

1899

2243

2387

2363

2027

2137

2096

1936

1937

1649

1552

1339

1633

1555

1255

1277

1383

1469

1567

1510

1489

1810

1702

1795

1790

2113

2128

2165

2474

2320

1994

1462

1886

2069

2582

2531

2684

2613

2738

2913

2694

2608

2380

2633

2677

2429

2182

2514

2627

2550

2680

2598

2602

2435

2439

2352

2398

2375

2185

2188

2326

2626

2706

2617

2625

2385

2727

2895

2711

2699

2589

2823

2836

2704

2621

2655

2763

2734

2883

2608

2085

2391

2632

2518

2112

2509

2739

2907

2841

2891

2943

2942

3037

2554

2736

2489

2480

2583

2653

2837

3332

2943

2755

2747

2325

2294

2182

2467

2241

1999

1938

2106

2111

1991

1887

1601

1892

1885

1550

1306

1530

1606

1430

1633

1612

1547

1614

1358

1583

1963

2027

2257

1890

1919

2004

1963

2045

2018

2251

2412

2160

2446

2351

2355

2407

2283

2068

2056

2160

1707

1667

1717

1935

1731

1774

1678

1579

1207

1314

811

711

719

1288

1195

1299

1174

1388

1261

1056

1245

1439

1232

1301

1456

1273

1578

1759

1728

1531

1549

1372

1206

1279

1618

1488

1330

1417

1430

1526

1472

1826

1726

2108

1818

2030

2129

2078

2033

1815

1901

2000

2202

2459

2669

2743

2985

3568

4095

4095

4095

4095

4095

4095

4095

4095

4095

4095

4095

4095

4095

4095

4095

4095

4095

4095

4095

4095

4095

4095

4095

4095

4095

4095

4095

4095

4095

4095

4095

4095

4095

3305

3413

3202

2885

2224

1762

1568

1295

858

720

525

261

497

723

615

573

1255

1413

1328

1527

1841

1771

1793

1295

1770

1886

1927

1591

1626

1710

1594

1471

1717

1298

1440

1390

1440

1345

1520

1558

1639

1890

1623

1303

1234

1295

1182

695

702

785

1355

1167

689

899

722

523

413

219

154

0

0

0

0

0

0

0

0

400

274

429

705

581

854

681

720

540

206

342

335

304

263

291

453

476

86

0

0

0

179

280

124

298

549

607

1329

1808

2439

2668

2897

3250

3775

4095

4095

4095

4095

4095

4095

4095

4095

4095

4095

4007

3348

3198

3895

4095

4095

4095

4095

3681

4013

4003

3824

3023

2997

2794

2579

2428

2286

2241

2127

1977

1545

1765

1729

1367

1476

1735

1483

1374

1677

1745

1659

1679

2027

1867

2082

2230

2284

2336

2227

2362

2548

2595

2463

2352

2242

2112

2287

2162

2098

2146

1999

1658

2059

2179

1983

2086

1885

1949

1874

1856

1902

2160

1954

2031

1529

1043

1487

2256

2227

2034

2002

1888

1904

1662

1744

1917

1793

1872

1728

1424

1449

1171

1090

1392

1424

1552

1126

927

1017

930

1214

1223

1054

1251

1157

1098

1655

1920

1878

1872

1719

1682

1526

1615

1837

1609

1616

1907

1553

1263

1534

1638

1740

1522

1613

1553

1488

1475

1524

1564

1473

1941

1104

1387

1498

1408

1247

1357

1061

795

1125

1371

1040

876

950

1119

930

635

672

427

770

837

560

324

0

189

338

432

624

999

1177

1239

1056

903

795

861

1071

1663

1821

2091

2142

2063

2112

2077

2283

2464

2262

1735

1801

1803

1979

1788

2134

2210

2295

2666

2814

3032

4095

4095

4095

4095

4095

4095

4095

4095

4095

4095

4095

4095

4095

4095

4095

4095

4095

4095

4095

4095

4095

4095

4095

4095

4095

4095

4095

4095

4095

4095

4095

4095

4095

4095

4095

4095

4095

4095

4095

4078

4095

4095

4095

3002

3286

3440

2862

2946

3952

2830

2233

2353

1678

1424

1485

1418

1350

1030

1631

1456

2234

2294

2403

2833

2928

3154

3248

3783

4095

4095

3978

4095

4076

3774

4095

4095

4095

4095

4095

4095

4094

4095

4095
