70.42
44.84
-82.54
-119.20
-53.61
-184.21
-239.74
6.19
44.96
-176.02
-113.23
129.21
107.73
-102.16
-244.02
-262.29
-249.30
-191.41
-60.74
-41.50
-182.09
-354.17
-307.02
-144.08
-105.37
131.93
263.91
166.73
337.29
353.66
300.50
535.66
521.53
197.59
76.91
259.95
346.12
258.95
158.26
63.88
95.23
119.43
70.35
83.91
46.15
22.83
83.44
65.34
-10.70
-65.05
-47.82
-61.40
-151.18
-85.17
66.15
122.06
189.59
220.73
159.90
205.86
135.58
-201.21
-391.52
-351.49
-9.24
404.30
324.78
133.05
132.86
163.34
177.15
-22.17
-219.71
-190.13
-117.99
-136.14
-250.11
-247.02
-206.58
-311.53
-250.30
-143.82
-256.26
-238.17
-142.27
-240.34
-331.16
-217.55
-106.95
-198.88
-248.94
-192.40
-207.06
-161.56
117.43
272.83
147.62
228.68
283.82
164.74
400.30
507.17
245.44
283.01
358.94
152.71
110.28
165.33
-9.01
-140.56
-28.03
79.64
50.73
33.33
80.99
59.95
2.27
-114.57
-225.14
-85.98
-99.14
-203.98
88.52
106.71
-132.28
68.59
153.12
-60.30
-200.64
-342.21
-264.64
-18.87
167.77
404.53
389.82
84.63
-72.09
-118.55
-151.57
-95.11
-109.91
-233.37
-238.84
-78.57
-58.02
-237.81
-241.07
-66.37
-77.41
-310.71
-348.90
-193.41
-274.22
-339.84
-287.01
-364.99
-245.77
-22.15
-190.24
-468.54
-373.03
-97.09
36.19
117.19
192.33
219.18
366.39
499.09
267.96
59.54
226.76
417.68
327.99
-19.97
-80.84
238.48
251.38
88.63
55.89
-80.26
-42.29
100.73
-86.50
-153.15
-48.44
-182.43
-225.02
-77.92
3.46
133.79
146.08
-61.21
16.46
188.15
-29.27
-258.56
-314.37
-308.92
-27.62
355.87
481.90
470.74
391.00
215.28
73.23
-35.68
-186.26
-277.62
-190.59
-45.83
-53.53
-241.80
-274.61
-82.88
-90.72
-260.60
-294.86
-178.54
-124.55
-215.76
-302.85
-395.37
-320.13
-6.12
63.47
-299.80
-528.52
-172.33
232.48
189.76
176.22
343.07
391.56
462.14
483.35
418.60
404.56
229.28
115.42
229.88
143.79
66.99
285.34
268.64
124.34
187.69
63.47
-38.69
31.60
-59.46
-103.51
-71.41
-82.62
-57.83
9.79
41.88
-24.17
44.29
118.44
151.36
289.81
-23.03
-386.21
-232.77
-223.10
-79.46
408.76
503.76
394.89
309.34
115.45
-44.84
-199.83
-161.27
-20.09
-137.30
-294.22
-309.99
-119.27
63.68
-88.88
-263.99
-213.13
-37.09
17.89
-147.68
-247.28
-327.59
-403.18
-291.34
-212.68
-189.12
-172.88
-196.60
-58.99
56.56
62.63
227.81
259.97
118.36
248.60
423.72
383.52
346.59
336.39
205.42
90.30
177.79
168.27
2.07
27.51
74.71
28.46
18.57
-45.39
-98.37
-125.29
-180.12
-171.30
-142.04
-211.74
-215.74
-14.53
113.38
74.31
51.93
32.45
-81.95
-104.38
5.93
-150.84
-419.81
-380.69
-75.32
405.08
649.65
409.20
205.53
95.83
-119.11
-118.16
-28.66
-66.58
-71.49
-178.27
-289.16
-115.29
-17.37
-178.79
-207.80
-167.13
-189.12
-114.08
-186.14
-347.22
-278.54
-264.48
-222.77
-90.95
-270.07
-363.89
-263.46
-198.51
126.59
256.72
133.48
271.74
296.96
294.52
458.94
404.22
279.28
218.27
130.53
162.86
214.73
137.23
178.62
333.11
258.97
82.32
29.70
6.31
-2.64
6.07
31.37
9.17
-112.86
-157.02
-114.00
-85.21
-48.17
15.70
60.11
93.64
199.23
91.45
-145.61
-162.84
-305.65
-235.56
359.34
512.29
163.27
157.50
213.73
-81.48
-232.06
-135.66
-114.49
-189.90
-182.51
-99.65
-194.80
-220.27
-50.62
-124.65
-245.45
-187.81
-252.15
-316.86
-272.65
-235.36
-120.37
-91.22
-275.57
-306.02
-179.95
-214.89
-210.29
-113.90
41.75
358.67
411.64
312.60
428.73
409.91
384.42
415.68
255.34
266.37
303.77
139.52
168.79
253.65
225.74
213.73
108.30
7.05
-20.04
-86.61
-45.87
15.13
-17.78
-14.31
-102.64
-72.24
183.63
154.55
-0.08
57.47
40.89
-1.90
83.87
-25.79
-337.11
-348.08
87.62
566.79
622.80
305.61
142.72
149.82
-35.31
-225.43
-246.81
-253.88
-243.41
-290.48
-293.48
-185.24
-227.43
-215.18
-126.03
-177.48
-165.09
-180.09
-238.19
-196.79
-234.31
-306.96
-312.80
-323.34
-366.47
-382.06
-337.12
-190.56
113.35
213.45
96.03
193.26
336.79
426.64
438.28
282.42
248.08
254.23
237.10
268.91
162.44
131.13
154.83
46.73
108.15
190.83
40.59
-57.84
-9.13
-11.08
-116.98
-217.81
-226.36
-138.59
-70.15
28.54
138.60
64.00
79.76
130.93
-41.45
-109.80
-231.54
-521.34
-375.34
167.90
526.26
435.53
24.99
-104.06
144.89
196.05
72.11
-63.77
-239.30
-238.87
-221.29
-275.41
-173.83
-126.81
-177.85
-187.56
-184.47
-140.83
-204.42
-224.68
-105.17
-215.60
-338.56
-231.73
-238.27
-296.05
-196.29
-135.55
-63.86
72.00
111.51
168.45
308.21
445.89
420.44
280.70
299.68
309.36
202.16
162.86
119.95
147.52
271.99
190.93
154.03
236.98
68.21
12.10
114.03
-36.53
-150.98
-78.42
-94.18
-131.84
-24.45
-32.57
-136.27
96.32
313.71
184.55
119.71
101.02
-47.88
-261.94
-456.79
-275.42
224.95
477.47
409.17
305.91
235.15
108.34
-29.65
-53.52
-13.39
-14.52
-46.12
8.40
-1.36
-247.43
-283.45
-80.86
-67.05
-147.46
-262.25
-325.96
-243.77
-194.47
-241.23
-315.21
-263.34
-164.54
-142.25
-123.54
-167.36
-124.24
42.38
95.34
223.23
393.07
382.46
378.30
321.49
165.55
139.20
206.01
268.43
283.00
154.37
85.06
67.27
-4.23
193.12
261.63
-50.33
-113.36
1.12
-75.06
-116.50
100.40
130.41
-136.49
-69.77
36.25
-88.02
34.87
175.17
163.70
133.60
-9.01
-196.43
-425.68
-415.34
-57.18
198.25
410.24
521.21
294.76
63.15
-2.38
-1.67
-89.71
-235.54
-202.97
-100.64
-122.67
-181.46
-154.28
-150.02
-230.49
-221.29
-152.13
-187.18
-288.21
-350.14
-305.43
-270.13
-349.07
-282.30
-117.62
-270.72
-453.01
-281.33
-107.46
-5.06
163.92
244.10
284.86
283.17
284.09
357.06
305.92
261.57
266.88
202.43
192.07
96.53
15.49
112.96
26.78
-85.54
47.56
103.86
71.79
60.78
3.69
-12.82
-57.77
-84.82
24.93
28.35
-15.82
33.86
20.08
31.54
90.02
96.59
139.48
100.96
-161.89
-392.92
-320.09
38.81
469.16
594.34
264.78
11.77
173.04
146.41
-189.07
-246.09
-66.38
-69.77
-235.05
-256.81
-258.75
-299.75
-158.03
-71.64
-93.33
-107.81
-228.69
-291.15
-263.24
-216.95
-220.65
-351.88
-286.42
-156.52
-204.96
-185.87
-144.52
-72.36
6.98
94.82
319.95
360.36
321.04
414.01
391.47
394.35
417.18
326.82
224.46
148.90
136.16
62.08
51.37
186.32
218.36
185.15
98.95
-38.18
-140.44
-133.69
14.52
25.18
-82.39
-87.12
-87.96
23.53
286.89
316.35
28.55
-75.83
68.81
-92.57
-326.10
-243.51
-104.58
143.54
452.64
489.36
231.33
-7.72
-50.00
-107.45
-122.99
-123.92
-262.25
-232.55
-52.02
-47.87
-205.76
-240.04
-80.78
-98.72
-207.01
-152.88
-213.92
-361.42
-415.67
-361.87
-167.62
-58.93
-167.00
-376.18
-460.42
-254.28
-22.88
30.92
146.68
394.67
391.97
240.08
406.15
533.34
418.54
326.14
217.78
223.33
215.64
55.71
86.26
206.19
132.71
1.54
-30.15
-36.22
-61.41
-55.08
-105.59
-188.57
-134.37
21.38
137.94
79.70
-41.48
-21.10
56.66
200.92
257.32
15.50
-236.52
-351.62
-318.09
0.77
443.35
630.29
424.06
75.96
-93.62
-1.68
80.52
-34.39
-109.60
-102.82
-141.11
-188.08
-168.80
-51.03
-55.19
-166.25
-184.61
-225.00
-239.48
-223.05
-228.28
-122.77
-144.43
-307.09
-299.23
-263.33
-187.20
-111.63
-280.43
-222.36
172.51
285.80
179.28
216.91
359.44
382.05
304.25
403.23
423.33
174.79
94.33
39.08
-136.65
-16.48
149.19
120.13
104.55
82.44
97.21
11.63
-204.09
-179.36
-42.23
-147.92
-299.26
-142.31
136.26
128.74
-2.47
81.05
229.19
240.39
69.73
-340.26
-610.79
-367.82
76.29
420.71
524.61
312.72
89.89
34.46
6.05
-131.82
-284.76
-201.12
-59.45
-53.16
-54.70
-127.44
-194.71
-107.35
-94.82
-180.96
-175.12
-236.78
-276.87
-84.03
-81.78
-235.52
-157.96
-200.77
-282.39
-53.04
-30.49
-177.60
-22.07
83.29
116.36
320.22
342.04
190.48
280.92
375.72
172.99
107.23
241.15
158.64
69.83
199.66
202.91
48.48
55.17
75.96
1.81
30.56
14.49
-84.28
-103.88
-115.05
-149.43
-161.07
-69.64
25.86
2.28
14.40
-11.46
31.42
177.97
5.39
-121.69
-114.54
-395.70
-380.30
120.30
480.86
487.57
257.34
20.05
-101.78
-120.73
50.49
136.95
-111.06
-201.06
-143.24
-360.42
-377.53
-84.32
-109.85
-263.57
-199.23
-150.23
-138.81
-163.52
-234.66
-205.05
-160.63
-235.95
-367.19
-364.73
-166.58
-21.82
-5.53
53.45
164.04
380.93
522.49
337.55
256.14
382.86
310.19
262.20
315.20
142.00
73.23
259.72
267.02
133.52
117.70
158.36
108.41
35.07
5.10
8.20
59.98
-98.51
-218.19
31.02
123.02
-16.56
-146.99
-162.86
-12.33
-4.89
-47.58
54.56
94.99
18.85
4.88
73.92
-103.88
-350.77
-136.27
248.27
430.13
485.79
389.85
185.47
-0.17
-59.30
-16.77
-32.79
-48.23
-43.11
-105.05
-117.75
-59.90
-44.34
-10.56
-50.15
-265.72
-316.80
-138.96
-73.90
-161.76
-307.87
-307.52
-179.74
-238.76
-232.51
-75.49
-31.38
-44.09
-115.03
-45.81
254.89
415.24
366.56
311.31
286.92
192.80
164.34
267.07
256.93
225.33
196.93
111.95
125.50
82.71
28.18
92.91
64.37
-12.18
-78.28
-143.08
-96.31
-99.87
-155.04
-37.83
15.19
-192.55
-260.74
-36.74
-46.19
-107.93
176.31
186.32
-2.72
15.56
-91.52
-246.52
-341.18
-389.85
-131.85
308.11
467.32
350.73
271.37
123.34
-79.98
-145.90
-190.73
-145.36
-71.99
-202.97
-297.59
-228.50
-238.56
-303.53
-220.34
-121.57
-131.35
-151.36
-232.15
-298.27
-236.70
-249.14
-307.94
-260.44
-286.17
-359.49
-268.69
-138.45
-48.07
94.38
163.58
264.61
483.58
387.60
201.20
347.19
400.20
198.96
112.40
268.90
305.03
90.03
127.79
346.50
222.62
-41.32
-15.74
86.86
-12.53
9.72
112.04
-9.90
-106.52
-89.50
-113.50
-160.73
-107.96
-5.37
-8.46
31.26
83.71
-8.63
42.52
168.44
3.12
-273.58
-408.13
-241.14
220.10
565.75
561.76
359.24
153.07
-27.55
-48.74
102.25
-22.43
-277.48
-184.55
-78.76
-207.41
-204.26
-133.78
-222.80
-169.51
-96.86
-201.52
-158.83
-90.85
-152.34
-216.08
-252.22
-220.28
-304.05
-389.05
-208.19
-98.63
-83.82
101.01
237.79
242.34
308.90
379.00
324.05
269.43
311.42
363.17
337.97
252.28
223.30
131.73
-52.95
-28.10
112.54
182.21
143.20
49.83
61.95
-53.20
-92.14
117.46
-2.98
-152.38
41.13
-51.79
-301.67
-106.39
42.26
-71.17
38.09
91.51
27.37
95.67
51.87
-82.39
-319.56
-489.04
-163.53
235.20
279.74
207.52
174.79
121.06
40.52
40.47
32.40
-190.78
-362.13
-157.77
-17.67
-175.46
-161.90
-81.75
-137.31
-78.23
-93.97
-154.11
-41.51
-202.27
-506.11
-409.64
-233.49
-281.02
-334.22
-276.96
-92.11
82.81
48.12
80.31
262.09
265.02
298.48
534.12
548.73
324.46
250.98
271.98
309.16
388.94
333.97
228.58
192.29
181.56
209.93
105.87
-46.79
47.72
132.16
85.67
57.50
-46.41
-111.09
-179.97
-282.44
-109.30
49.89
19.04
84.76
91.19
33.19
80.02
189.16
150.62
-272.79
-503.03
-123.10
317.73
545.53
510.69
274.18
115.72
-7.82
-125.27
-155.18
-122.17
-82.46
-153.70
-274.75
-288.33
-295.23
-298.82
-126.14
-49.66
-260.33
-268.11
-128.58
-318.60
-489.58
-397.03
-286.72
-257.57
-337.06
-356.33
-227.77
-127.74
-124.52
-132.03
-69.32
72.25
246.61
427.26
565.73
459.49
255.71
264.62
258.19
140.48
83.65
88.59
145.13
107.51
1.54
44.56
106.25
67.70
10.09
-17.19
-92.69
-229.46
-200.50
-40.96
13.59
-6.40
87.24
253.81
201.32
101.20
170.91
78.94
-166.59
-371.38
-373.56
52.28
472.29
510.32
313.32
61.34
2.58
-13.58
-186.17
-278.38
-207.42
-149.93
-242.18
-208.78
-71.88
-199.03
-240.39
-137.33
-265.12
-349.59
-180.24
-39.72
-112.59
-277.50
-322.13
-247.46
-246.30
-274.76
-138.00
-3.25
-98.53
-110.95
192.68
294.45
140.12
270.37
416.23
360.58
447.50
510.26
357.25
241.41
219.61
146.83
36.84
49.14
261.44
346.56
94.60
-96.40
-49.24
-22.68
-37.87
-20.49
-78.18
-83.73
-4.37
-49.76
44.24
229.68
164.98
164.65
194.47
-43.89
-293.23
-364.92
-178.53
165.71
273.83
160.50
69.70
27.32
6.48
-67.72
-144.73
-75.69
-42.91
-99.72
-62.65
-128.74
-292.75
-231.97
-111.70
-143.88
-147.86
-79.68
-92.23
-135.24
-173.10
-200.13
-84.78
-142.56
-341.65
-180.27
-86.33
-198.35
-122.14
-70.53
27.39
250.45
264.63
160.38
193.25
234.88
164.83
220.74
287.21
141.99
139.93
179.32
72.60
82.60
61.11
6.74
-14.36
-72.05
53.39
115.43
-78.02
-136.27
-144.34
-255.41
-152.97
38.88
108.57
238.89
267.59
115.34
39.38
-78.41
-310.43
-361.62
-155.87
129.59
385.33
512.00
433.96
215.61
-41.74
-214.46
-178.28
-107.18
-169.84
-107.97
78.55
100.50
-88.28
-295.44
-235.75
-138.04
-254.34
-263.03
-132.14
-76.40
-64.65
-124.84
-317.06
-424.46
-386.06
-349.14
-167.95
-9.82
-32.93
74.42
197.95
248.02
291.98
241.44
236.20
261.40
299.72
315.38
156.04
122.86
261.74
131.82
-53.47
179.02
425.25
280.57
-0.80
-99.36
11.25
-15.73
-147.19
-148.83
-122.09
10.96
93.50
-30.08
-1.55
97.19
44.99
47.51
59.20
-76.87
-283.81
-304.43
24.04
406.79
537.55
397.26
197.12
156.13
101.07
-78.01
-185.16
-110.17
13.22
10.02
3.87
-44.66
-113.24
9.04
-101.75
-279.37
-129.47
-202.07
-265.42
-113.91
-202.93
-168.90
-50.41
-302.37
-396.13
-135.12
-83.21
-120.23
-21.72
20.70
161.29
308.38
285.50
256.88
195.13
263.42
352.51
183.95
97.20
153.79
196.70
148.19
27.74
103.30
115.88
-23.86
76.55
58.27
-283.70
-307.78
-58.22
-121.58
-168.67
57.24
33.59
-107.63
-22.62
39.55
44.77
17.87
-68.54
-213.02
-417.14
-247.64
262.06
516.22
464.26
185.73
-158.39
-207.43
-79.65
-29.99
-47.50
-140.14
-214.70
-180.97
-167.26
-183.45
-184.47
-202.11
-181.04
-148.00
-166.74
-165.53
-122.23
-114.17
-239.70
-422.70
-381.73
-270.80
-280.04
-195.68
-108.04
-1.99
153.81
134.82
172.11
285.08
263.99
312.88
405.41
404.18
394.22
328.70
275.21
329.06
257.44
65.75
5.40
57.43
161.44
171.39
3.04
-83.13
-56.12
2.92
65.84
-68.73
-207.20
-84.44
63.07
100.74
151.40
170.75
61.13
-23.72
-47.44
-237.43
-409.69
-118.19
420.63
572.02
317.18
89.70
33.72
23.52
-46.75
-85.41
-146.04
-359.43
-373.07
-159.46
-129.54
-199.60
-222.22
-185.01
-95.15
-72.42
-141.82
-326.08
-434.40
-268.65
-117.37
-254.36
-366.61
-188.76
-155.65
-257.07
-120.66
-51.51
-89.62
35.79
238.06
356.61
350.70
357.67
375.54
315.34
276.83
317.87
332.19
235.53
204.54
180.27
41.08
81.00
185.37
154.40
61.16
-57.35
-7.34
17.49
-134.92
-222.36
-239.02
-58.21
197.48
149.71
49.50
72.90
-8.19
-55.24
-41.62
-282.73
-477.10
-255.26
150.30
531.11
600.15
350.00
186.86
29.43
-105.54
-71.15
-115.11
-165.17
-177.43
-227.35
-158.94
-121.71
-156.86
-156.00
-182.31
-143.25
-99.10
-132.71
-123.61
-120.35
-236.58
-409.71
-421.57
-263.44
-206.38
-240.27
-110.11
49.90
26.61
35.50
144.94
175.23
186.08
272.36
375.60
392.39
318.62
368.05
407.06
218.33
186.78
244.20
138.64
107.23
29.85
34.41
97.87
-107.69
-9.79
209.76
-16.72
-177.91
-195.44
-124.77
102.89
160.95
132.30
126.11
82.96
94.07
35.41
-167.91
-333.04
-192.59
290.58
626.69
528.32
273.96
57.24
-19.92
-24.87
-156.20
-203.96
-202.19
-326.82
-285.65
-156.82
-162.07
-199.63
-277.85
-259.67
-111.42
-120.90
-249.63
-263.52
-198.22
-225.54
-266.70
-282.17
-402.67
-401.38
-199.37
-61.05
-31.06
1.64
89.47
148.09
199.25
291.07
329.48
363.21
474.07
552.78
427.67
275.15
282.33
242.21
102.19
-42.50
2.81
137.28
11.86
8.81
151.56
7.77
-148.32
-163.61
-176.50
-132.05
-22.85
7.05
42.88
233.26
225.40
-35.71
-148.11
-110.80
-104.62
-239.75
-386.42
-111.32
384.89
489.74
304.56
151.68
47.59
-62.81
-130.33
-108.00
-149.03
-242.93
-268.66
-235.48
-203.29
-212.57
-175.79
-150.10
-214.30
-138.40
21.15
-141.08
-342.90
-161.20
-40.07
-224.21
-392.98
-369.82
-241.86
-144.92
-13.21
63.01
18.26
101.09
228.29
305.44
398.45
345.70
211.73
111.15
80.41
204.20
312.02
304.85
191.89
41.43
-30.21
-61.23
26.88
90.81
-2.53
-42.61
-88.40
-66.52
54.99
-22.08
-96.43
30.43
92.13
37.35
50.84
145.29
157.61
33.11
-111.57
-190.44
-202.96
-14.11
362.43
470.13
265.50
128.57
85.15
-26.51
-214.54
-200.38
40.63
96.06
-73.86
-198.27
-195.97
-196.08
-222.57
-170.67
-154.39
-124.57
13.52
64.73
-56.56
-300.27
-306.19
-114.31
-239.73
-248.13
-10.97
-40.53
-46.01
-31.35
-132.45
41.44
261.77
203.53
147.01
262.71
358.82
275.63
249.09
350.40
219.07
11.33
143.52
347.61
206.13
-83.30
-153.47
-63.46
-41.87
-57.66
-11.11
-31.43
-35.10
17.82
-85.52
-54.86
81.51
-15.74
-5.90
111.01
111.64
112.94
19.39
-161.65
-402.92
-584.63
-270.30
332.02
577.01
433.26
156.95
-114.74
-116.73
63.39
-41.42
-199.74
-93.43
-101.58
-218.76
-140.83
-147.79
-266.53
-143.11
-78.43
-162.92
-70.96
-98.44
-277.35
-235.20
-134.20
-152.02
-236.16
-334.06
-274.66
-120.45
-72.08
-48.33
21.76
66.25
152.11
308.76
358.26
423.34
507.43
354.11
248.47
239.16
99.38
88.18
202.89
117.80
-22.76
-16.39
-30.39
17.90
107.01
-7.88
-8.09
154.71
51.58
-145.13
-194.53
-189.63
-73.70
10.58
57.02
258.29
251.85
-16.87
-172.01
-323.11
-429.41
-155.93
280.24
512.99
575.52
477.76
235.05
4.27
-166.65
-193.24
-75.95
-102.34
-204.91
-100.66
2.18
-37.92
-128.24
-327.03
-399.35
-139.81
-23.34
-237.55
-313.56
-186.69
-173.35
-235.15
-187.14
-189.92
-233.52
-137.41
-130.27
-152.44
12.91
178.62
329.10
433.02
386.71
387.79
420.09
384.78
346.89
254.50
186.94
113.29
81.21
281.69
376.20
265.95
99.10
-108.90
-85.16
19.69
3.80
-5.55
-83.22
-89.61
-33.58
-85.84
-143.06
-142.35
50.43
178.03
63.12
76.83
6.49
-307.27
-393.17
-95.20
375.96
538.22
201.09
53.95
153.05
-27.31
-102.51
-51.96
-221.59
-230.38
-109.36
-203.05
-314.84
-237.08
-215.14
-322.47
-269.58
-163.77
-117.60
-114.73
-251.59
-339.96
-341.69
-334.43
-320.10
-368.84
-315.67
-267.31
-254.19
-6.92
158.44
132.08
194.63
292.38
301.60
262.46
264.89
268.11
249.10
160.54
129.30
284.82
229.23
-2.21
-59.02
-72.23
2.61
98.04
-9.40
-25.31
46.61
-42.12
-49.14
3.50
-45.61
51.24
169.48
45.13
-31.65
52.04
35.61
-102.02
-168.99
51.65
422.85
508.78
382.26
244.64
55.21
-35.67
-60.56
-164.20
-249.77
-243.32
-182.84
-193.89
-200.11
-55.83
-111.25
-327.29
-158.81
-45.90
-218.85
-120.39
-140.97
-365.32
-257.96
-155.96
-249.78
-303.18
-270.13
-177.29
-39.84
101.29
110.20
247.61
457.28
258.94
102.20
240.34
364.98
428.53
267.62
215.82
343.12
165.05
110.24
264.39
130.47
-43.51
-105.92
-143.34
-29.96
27.80
-103.05
-115.12
57.12
195.06
238.78
173.77
-56.62
-183.37
-40.86
60.48
-38.63
-188.85
-157.86
68.65
347.83
524.52
407.30
170.79
21.38
-112.22
-180.97
-137.81
-161.14
-301.91
-219.34
-45.20
-190.81
-273.55
-123.81
-64.82
-122.65
-214.81
-185.10
-118.08
-193.01
-215.15
-132.48
-181.29
-380.07
-368.10
-159.13
-56.26
27.21
24.08
38.75
190.61
236.74
359.85
451.66
348.20
374.97
473.25
486.63
420.46
299.01
157.43
64.42
106.62
112.96
-10.14
-75.15
-19.90
-40.42
-154.28
-97.90
-93.01
-294.66
-133.57
223.06
84.57
-162.36
-132.02
-93.68
60.50
113.74
-275.36
-481.69
-273.31
-65.45
129.78
258.24
143.35
-89.95
-170.78
-32.24
-35.54
-184.75
-113.29
-149.35
-311.63
-300.66
-444.70
-419.00
-162.51
-402.52
-691.99
-631.81
-778.12
-1211.93
-1470.54
-1329.59
-1171.96
-1168.32
-1043.78
-904.18
-839.14
-756.06
-695.07
-611.80
-521.22
-462.02
-385.39
-314.73
-255.95
-189.37
-130.92
-75.75
-19.83
30.56
79.47
126.66
170.37
212.16
252.00
288.97
324.28
357.47
388.59
417.59
444.81
469.97
493.62
515.25
535.41
553.62
570.44
597.44
921.12
1849.81
2790.25
3167.06
3143.31
2504.75
1549.88
1194.31
1995.63
3589.00
3831.19
2899.88
2923.88
2905.31
2417.75
2388.41
2213.47
1934.59
1852.63
1653.56
1474.22
1353.95
1181.11
1040.28
911.10
767.03
643.95
521.66
399.99
289.48
180.12
75.48
-22.75
-118.33
-208.83
-294.69
-377.03
-455.06
-529.09
-599.37
-730.94
-1375.88
-2945.19
-4423.81
-4572.75
-4145.69
-4033.13
-3871.94
-3628.81
-3330.50
-2795.00
-2433.13
-2074.56
-1379.19
-1021.31
-1099.63
-1397.19
-2179.31
-2787.81
-2574.00
-2268.88
-2247.63
-2087.63
-1907.06
-1799.44
-1352.50
-712.62
-770.87
-1377.88
-1429.44
-1120.94
-913.56
-524.81
-330.25
-582.69
-706.25
-428.78
20.97
459.72
836.87
1137.41
1254.78
861.39
167.91
-291.33
-609.47
-632.97
-385.87
-365.46
-335.45
-193.79
-166.69
-66.74
494.36
2116.30
3917.79
3963.03
3244.69
3306.88
3181.05
2822.61
2783.42
2593.48
2381.23
2287.52
2105.38
1955.84
1835.67
1682.12
1556.40
1434.08
1304.92
1191.88
1077.98
967.05
864.36
762.57
665.47
573.53
483.73
398.56
-832.25
-2378.28
-864.62
-586.02
-2907.80
-1396.66
-619.19
-1402.75
-685.64
-2149.39
-1542.66
-345.37
-990.53
-521.62
-1828.72
-1401.00
-199.50
-739.28
-372.41
-1649.50
-1211.19
-49.38
-510.47
-86.53
-1467.81
-1114.09
107.41
-348.97
44.97
-1319.28
-987.22
230.45
-207.02
181.91
-1194.38
-875.91
344.33
-77.44
322.06
-1079.19
-789.30
446.11
87.66
554.42
-950.97
115.91
2570.06
914.25
849.39
1089.98
-138.92
2.48
833.46
1224.22
143.84
150.76
956.46
636.84
957.62
659.48
29.55
186.02
501.40
854.02
