189.58
905.47
1762.05
1833.65
1269.76
965.95
982.21
893.72
732.63
713.79
779.65
755.41
603.74
395.66
188.64
5.52
-148.70
-286.47
-412.20
-516.56
-610.39
-704.06
-772.20
-801.25
-816.02
-833.30
-844.89
-838.36
-820.72
-820.23
-838.84
-837.08
-799.30
-759.87
-743.97
-737.59
-726.22
-715.09
-708.69
-698.20
-674.27
-635.69
-590.37
-556.92
-546.89
-537.16
-498.28
-448.84
-420.72
-400.14
-365.75
-327.97
-297.16
-269.37
-241.42
-209.72
-174.50
-141.55
-109.30
-75.54
-46.87
-25.68
-7.10
17.36
56.29
100.62
134.97
161.04
178.46
184.54
195.86
220.05
235.55
233.16
228.82
233.52
248.61
270.68
286.97
287.57
278.91
279.39
301.94
336.45
363.45
379.67
391.55
400.11
401.67
392.78
377.23
364.25
360.91
366.53
371.16
365.87
355.67
351.72
351.03
344.81
335.98
332.23
331.44
322.03
302.80
288.30
283.81
274.72
255.55
246.08
253.72
259.00
255.47
252.48
247.03
231.92
211.19
193.30
183.92
181.69
178.66
164.97
138.34
111.98
101.05
102.09
99.11
88.23
78.91
74.10
64.95
44.95
20.62
4.94
-2.47
-11.07
-17.14
-16.25
-21.66
-37.51
-51.73
-63.55
-77.66
-90.75
-97.79
-97.12
-93.74
-94.12
-96.57
-101.28
-109.29
-113.67
-115.85
-124.95
-132.92
-133.92
-140.22
-146.58
-137.80
-127.79
-130.56
-134.64
-132.87
-132.53
-138.67
-147.56
-149.73
-143.21
-138.25
-138.27
-136.43
-131.71
-130.66
-135.03
-136.85
-129.25
-118.53
-112.81
-109.13
-105.25
-106.43
-112.32
-114.83
-113.20
-111.79
-109.23
-103.30
-94.63
-82.12
-64.73
-46.38
-34.70
-35.01
-43.18
-57.21
-93.78
-163.94
-247.47
-309.63
-320.54
-277.67
-210.01
-139.12
-68.41
-8.25
33.02
63.65
92.80
116.33
121.80
112.71
112.01
126.20
135.80
127.18
106.48
90.04
88.88
96.23
95.55
83.92
73.13
70.98
75.45
80.72
92.31
134.39
205.94
253.81
236.90
179.65
129.41
98.85
66.38
20.09
-19.06
-35.41
-42.39
-50.95
-61.23
-77.52
-95.67
-103.04
-99.70
-96.40
-92.91
-81.12
-66.30
-61.88
-65.48
-63.55
-57.00
-54.00
-49.61
-41.59
-38.93
-36.90
-27.00
-21.29
-31.72
-50.59
-60.67
-51.89
-32.23
-17.18
-9.50
-3.59
0.19
5.05
14.69
20.20
16.81
15.50
24.70
37.39
38.00
27.21
23.27
29.04
30.45
29.39
36.12
42.46
37.90
27.98
23.63
27.87
31.62
29.70
32.35
38.49
32.49
23.31
26.75
28.97
19.32
11.50
13.58
19.71
21.86
17.97
18.22
25.32
24.15
13.85
8.41
6.93
4.17
3.42
6.32
9.62
8.49
3.68
5.15
12.62
14.53
11.61
10.51
9.35
11.41
19.38
20.64
10.44
0.98
-4.31
-5.94
-0.07
7.74
10.12
7.84
2.93
-0.27
0.31
1.62
3.90
3.53
-5.77
-18.71
-27.03
-28.43
-21.17
-11.66
-5.99
25.21
124.66
276.85
417.75
506.05
539.13
528.12
478.29
390.89
283.74
178.82
75.75
-24.24
-104.93
-162.78
-208.06
-246.72
-283.27
-324.57
-369.04
-403.00
-418.34
-423.73
-428.96
-430.04
-420.21
-404.45
-389.96
-375.11
-350.18
-313.79
-282.58
-261.71
-229.54
-183.06
-148.32
-132.01
-115.10
-87.00
-53.74
-30.28
-20.98
-10.56
11.69
34.35
42.27
39.11
46.49
73.43
101.92
116.60
124.64
134.33
142.12
144.29
140.65
133.74
130.69
132.51
129.66
119.80
111.54
111.45
118.93
129.96
140.06
144.98
145.49
145.98
146.96
144.02
135.17
126.73
124.64
123.65
123.04
111.73
44.50
-90.92
-213.29
-237.40
-176.92
-100.74
-39.03
22.79
85.68
128.42
148.57
162.21
175.97
188.44
197.75
202.13
202.89
199.71
189.09
182.34
182.80
138.54
-3.54
-209.56
-394.46
-496.26
-491.20
-395.80
-257.27
-119.59
0.13
107.31
199.01
257.99
287.77
307.52
319.55
318.17
302.20
276.64
255.44
241.00
220.59
196.73
175.38
131.26
51.69
-17.33
-35.90
-24.96
-15.62
-8.54
0.71
0.86
-12.93
-22.58
-19.72
-20.53
-30.85
-40.85
-48.11
-53.55
-57.37
-64.40
-69.10
-63.79
-60.28
-67.65
-80.11
-94.99
-109.93
-121.54
-134.01
-146.99
-154.01
-153.04
-143.52
-130.48
-126.05
-129.47
-128.13
-123.41
-125.87
-133.10
-136.76
-139.24
-146.04
-152.87
-152.72
-146.25
-136.73
-123.19
-107.29
-97.19
-96.41
-98.25
-93.98
-83.49
-75.68
-74.22
-71.74
-64.90
-60.72
-60.81
-61.73
-63.14
-60.14
-46.76
-29.64
-19.12
-15.95
-13.04
-5.88
-0.13
-0.98
-3.99
-6.34
-9.24
-8.34
-0.51
7.70
10.01
6.93
3.81
8.90
21.19
30.01
33.50
37.14
41.54
48.30
59.39
68.35
71.79
73.50
72.71
68.20
61.27
51.38
43.34
44.58
51.90
58.34
62.80
64.07
62.81
63.05
62.98
58.24
51.23
48.29
50.35
53.76
59.53
71.77
82.27
76.54
59.05
46.55
42.92
42.63
42.15
40.37
41.01
44.18
41.49
33.62
24.06
-7.94
-90.63
-219.62
-356.47
-458.80
-512.27
-529.63
-514.22
-458.21
-374.29
-284.86
-195.36
-101.58
-2.75
93.00
172.27
239.12
302.95
352.98
386.23
417.78
445.14
457.69
461.25
459.14
445.80
422.40
395.73
372.37
359.33
354.00
339.59
307.84
270.53
237.89
205.20
170.48
143.52
125.02
105.80
85.36
64.46
42.77
29.12
24.83
17.88
10.55
12.92
17.02
11.64
-1.40
-19.85
-44.08
-68.92
-88.20
-100.23
-109.90
-124.65
-138.29
-142.84
-145.93
-145.05
-131.19
-120.65
-130.41
-152.71
-173.43
-180.65
-170.52
-159.66
-164.41
-174.73
-175.05
-170.30
-171.09
-176.00
-177.58
-177.35
-184.08
-194.41
-193.95
-180.16
-163.98
-154.46
-152.64
-154.05
-143.20
-85.51
45.06
210.12
319.12
315.85
226.81
114.99
17.14
-61.98
-127.33
-180.20
-222.87
-260.11
-287.44
-297.17
-292.52
-281.08
-271.11
-268.73
-263.13
-238.75
-204.58
-179.41
-146.51
-53.67
122.60
329.37
488.86
572.84
591.76
550.68
448.16
293.30
115.94
-41.07
-156.93
-243.60
-310.81
-356.41
-383.75
-395.70
-393.72
-383.11
-364.28
-338.52
-314.21
-290.84
-259.81
-221.90
-184.39
-150.21
-114.32
-69.33
-26.34
-4.50
2.05
13.77
40.36
92.69
166.25
217.14
216.96
192.29
173.91
161.42
151.15
146.44
145.49
140.43
128.79
116.53
108.95
110.02
126.00
151.27
168.13
173.92
181.37
192.76
201.34
203.44
198.73
191.33
186.07
180.14
172.96
170.20
171.97
174.89
173.91
162.04
146.49
140.80
140.40
133.27
123.76
119.81
116.66
108.65
102.95
109.11
123.89
139.63
155.27
160.79
142.98
111.77
86.33
69.02
51.75
31.41
14.27
5.56
-5.01
-24.25
-36.36
-34.22
-31.77
-31.16
-23.38
-11.49
-3.70
-2.26
-6.55
-15.07
-28.36
-45.64
-60.75
-71.34
-80.18
-85.10
-83.42
-79.14
-76.04
-73.96
-74.44
-76.03
-72.75
-68.13
-74.97
-92.91
-103.20
-96.12
-86.84
-89.81
-94.41
-86.02
-72.30
-67.43
-67.73
-63.14
-58.39
-66.32
-82.01
-86.64
-82.29
-86.30
-92.98
-86.61
-74.09
-67.51
-63.20
-61.16
-67.09
-75.02
-76.89
-74.14
-71.96
-66.41
-41.29
0.69
25.76
16.77
-6.73
-26.50
-40.30
-45.23
-27.80
36.51
152.85
279.66
372.04
423.12
439.03
418.99
363.64
281.05
186.56
89.14
-8.51
-93.39
-153.58
-194.34
-226.51
-254.68
-279.41
-295.27
-303.62
-314.57
-325.38
-325.16
-318.76
-317.13
-320.49
-318.94
-306.75
-295.03
-297.52
-299.42
-274.49
-226.34
-184.78
-163.17
-147.31
-127.30
-108.31
-88.34
-61.95
-34.26
-11.74
5.99
24.91
51.46
81.23
100.70
107.27
111.20
114.44
113.63
119.40
139.90
165.04
180.74
182.27
171.80
160.74
160.48
165.70
169.09
172.34
169.94
159.06
147.49
135.02
123.44
122.37
127.63
131.12
134.04
135.12
136.69
139.98
128.91
104.84
93.57
97.60
97.60
92.17
96.50
114.27
126.43
116.37
98.36
89.47
83.20
79.16
82.86
66.68
1.87
-80.20
-119.80
-97.73
-47.98
-13.91
2.88
26.15
53.73
68.80
75.91
86.30
100.54
117.60
126.49
77.89
-72.55
-278.37
-441.20
-526.39
-560.87
-553.62
-505.44
-439.05
-351.67
-213.92
-39.58
114.79
219.36
292.45
355.05
402.67
427.87
432.94
426.59
434.87
478.09
520.57
503.85
428.82
344.79
281.22
233.12
186.96
139.95
98.51
61.60
24.60
-5.25
-21.11
-30.32
-41.08
-57.55
-81.92
-102.59
-107.95
-110.26
-122.87
-138.39
-145.75
-146.94
-154.64
-169.91
-174.79
-166.21
-164.16
-172.21
-176.89
-179.31
-184.97
-189.82
-189.50
-181.48
-170.21
-166.36
-165.27
-158.62
-156.71
-160.39
-155.75
-146.53
-144.16
-145.60
-146.81
-146.05
-141.23
-136.57
-132.99
-126.37
-121.22
-123.33
-144.16
-214.09
-347.64
-514.86
-671.18
-783.09
-831.89
-814.74
-736.95
-610.82
-461.73
-312.36
-164.01
-9.74
144.44
280.39
386.43
468.73
535.69
578.04
592.07
599.40
613.95
626.36
628.67
617.00
588.36
552.01
521.87
501.55
484.05
459.68
427.62
394.61
360.24
322.36
284.76
250.26
220.75
194.95
170.54
152.14
131.91
87.20
25.33
-20.43
-43.51
-59.67
-71.37
-71.57
-59.40
-46.69
-50.22
-67.74
-85.54
-100.21
-109.70
-112.07
-115.93
-126.59
-142.52
-153.27
-118.86
-11.37
134.17
276.57
416.25
542.29
612.14
598.78
503.04
333.91
118.27
-101.10
-292.12
-436.91
-531.30
-591.17
-636.62
-671.76
-685.58
-675.59
-654.91
-628.66
-596.12
-567.79
-545.21
-512.74
-461.31
-382.16
-271.27
-170.67
-132.98
-149.73
-177.45
-190.62
-192.32
-197.12
-198.69
-182.98
-160.81
-144.92
-128.26
-104.26
-74.44
-42.78
-14.27
14.77
48.27
74.66
88.10
99.48
107.09
101.90
90.57
80.93
68.19
53.85
51.36
60.47
70.21
79.39
93.91
111.94
126.22
134.10
140.49
149.70
162.49
175.85
178.75
173.87
183.33
206.31
220.98
225.93
234.97
248.94
256.23
250.98
246.20
249.27
245.93
233.82
228.49
233.55
240.48
241.60
235.76
229.99
225.13
214.59
199.62
184.38
170.73
164.14
162.84
154.85
139.84
125.11
107.80
91.08
78.02
50.12
1.41
-42.25
-64.36
-73.32
-80.86
-83.91
-59.98
-3.41
50.04
74.46
80.50
77.15
68.46
60.78
52.55
47.98
49.22
36.64
2.89
-32.89
-59.21
-74.62
-74.99
-68.40
-71.96
-91.72
-117.15
-128.60
-121.60
-113.47
-110.65
-105.53
-104.57
-117.14
-133.70
-140.31
-134.98
-127.46
-124.57
-120.42
-112.63
-109.38
-110.10
-109.80
-117.37
-134.38
-142.64
-135.96
-128.18
-126.54
-125.92
-118.03
-91.87
-38.54
26.41
64.27
55.47
21.04
-12.32
-40.75
-62.93
-75.51
-89.13
-109.80
-123.96
-121.54
-111.53
-107.45
-109.06
-105.24
-95.36
-90.98
-90.84
-80.16
-45.79
39.16
189.82
347.64
417.59
367.54
247.75
130.95
46.32
-20.42
-76.89
-115.62
-139.77
-156.63
-168.51
-177.23
-181.43
-181.25
-181.39
-175.77
-166.20
-192.57
-276.61
-357.77
-361.76
-295.31
-213.51
-141.84
-74.68
-14.14
29.13
59.96
87.99
107.38
114.24
120.00
130.19
139.53
146.52
150.79
151.30
151.96
156.34
162.87
165.73
156.59
139.89
131.96
132.17
128.82
123.48
118.66
115.83
123.39
133.62
126.50
108.19
100.50
103.24
101.10
88.72
74.37
65.28
61.10
57.94
46.65
25.00
12.41
19.68
30.82
36.57
43.32
49.17
52.82
61.38
70.39
72.50
71.17
68.44
66.80
65.10
48.77
19.04
1.19
2.83
7.85
5.82
-3.97
-14.94
-15.93
-7.49
0.08
1.67
-3.11
-8.98
-11.28
-14.87
-22.51
-30.81
-37.30
-36.35
-30.79
-33.04
-38.23
-37.19
-42.24
-54.88
-55.15
-46.45
-48.87
-55.63
-50.78
-44.73
-52.61
-64.83
-63.64
-52.80
-47.08
-43.08
-33.57
-31.47
-43.20
-51.43
-45.06
-32.07
-24.60
-28.13
-34.82
-34.30
-32.49
-33.99
-28.76
-19.52
-19.83
-23.23
-18.36
-14.67
-19.56
-22.09
-16.37
-15.24
-25.61
-32.63
-29.18
-28.04
-32.94
-36.14
-36.74
-33.82
-25.30
-19.44
-19.85
-18.28
-11.53
-3.23
4.40
6.78
2.20
-0.74
3.28
7.61
4.99
-2.19
3.92
37.77
77.14
86.60
66.07
41.23
26.02
16.61
7.46
-3.24
-16.35
-22.72
11.71
117.87
265.51
380.97
435.35
455.80
457.27
423.83
347.99
252.36
164.42
83.20
-4.49
-82.92
-135.11
-183.59
-229.08
-244.02
-248.20
-269.95
-296.81
-316.57
-330.55
-341.15
-353.09
-366.91
-377.04
-374.95
-358.28
-334.48
-312.96
-300.30
-288.64
-259.20
-221.96
-202.22
-184.24
-146.24
-110.77
-96.19
-80.90
-47.43
-6.66
23.01
36.59
45.07
56.71
65.02
68.72
80.80
106.50
116.22
56.44
-69.23
-160.67
-143.15
-64.93
-0.36
46.98
99.16
157.70
211.91
250.46
275.52
290.70
253.54
121.70
-61.44
-212.35
-279.14
-241.64
-122.50
17.83
142.27
255.95
361.87
440.43
477.49
468.90
391.69
236.48
61.36
-50.88
-63.45
8.78
121.48
228.25
310.16
372.95
423.30
457.98
473.69
471.27
453.28
424.37
390.04
355.77
322.80
286.79
248.37
213.95
187.72
186.71
223.34
255.14
229.21
161.62
96.07
40.60
-14.85
-70.27
-117.06
-151.64
-177.33
-192.99
-202.21
-215.17
-227.04
-231.09
-236.61
-244.98
-246.86
-246.69
-251.15
-254.54
-256.63
-261.27
-247.00
-184.98
-92.42
-33.60
-48.91
-107.21
-160.98
-203.07
-237.14
-258.19
-274.38
-293.36
-304.68
-306.49
-307.84
-306.43
-296.27
-278.72
-260.96
-252.99
-253.38
-251.75
-245.42
-233.48
-211.63
-185.83
-163.80
-150.04
-173.75
-260.81
-360.87
-387.54
-323.77
-226.28
-146.87
-88.34
-35.32
12.07
53.37
92.55
121.56
136.47
146.37
151.71
146.06
124.45
66.85
-44.91
-187.35
-309.60
-381.75
-409.08
-405.86
-369.28
-292.49
-190.35
-84.20
23.52
136.84
249.07
349.37
428.85
481.77
508.29
519.23
533.94
556.32
566.16
555.04
535.77
513.80
489.66
464.03
434.31
407.62
392.98
379.10
355.55
336.78
328.63
312.46
285.94
266.91
254.69
232.59
200.13
168.76
138.86
114.33
104.04
86.45
41.86
-0.61
-17.60
-31.97
-58.65
-78.29
-80.57
-85.57
-104.65
-120.71
-124.81
-128.13
-139.13
-156.05
-174.80
-192.48
-201.91
-200.20
-196.82
-195.76
-189.39
-178.19
-175.03
-185.41
-196.96
-198.69
-196.89
-199.05
-202.74
-204.46
-199.52
-182.45
-157.64
-137.32
-128.88
-132.42
-141.80
-144.46
-135.22
-129.28
-142.86
-160.83
-123.60
17.64
215.78
382.77
508.47
621.87
704.89
725.51
678.48
557.71
361.04
126.15
-88.95
-255.80
-383.89
-487.57
-561.54
-600.26
-618.36
-622.15
-592.23
-525.32
-458.91
-427.37
-422.05
-415.04
-400.76
-389.09
-377.98
-361.93
-348.23
-339.10
-316.40
-260.47
-178.80
-108.95
-77.05
-64.63
-45.09
-23.45
-11.43
-4.01
2.57
9.06
20.84
36.84
57.29
87.02
117.80
138.56
152.45
166.39
181.36
192.30
192.33
187.52
189.53
196.52
204.95
218.14
233.30
242.70
241.40
230.84
224.83
235.36
249.27
247.45
234.39
223.43
217.05
208.98
193.80
176.12
167.92
170.31
176.33
184.23
191.94
194.32
193.92
192.95
187.41
175.98
160.95
148.11
139.91
133.83
132.20
131.66
118.89
100.30
93.62
92.09
81.40
69.57
65.62
60.41
46.89
33.08
27.57
25.05
16.94
8.99
7.64
4.32
-3.09
-7.45
-12.68
-21.90
-30.12
-38.16
-43.07
-35.13
-22.93
-23.95
-35.64
-49.29
-62.80
-71.73
-76.14
-79.59
-79.73
-75.92
-69.15
-61.60
-62.54
-74.79
-84.96
-67.74
0.95
109.09
213.17
295.43
363.21
397.46
373.04
306.53
230.39
151.13
57.34
-49.60
-146.93
-222.40
-289.35
-353.93
-406.28
-447.01
-477.96
-492.50
-493.48
-488.33
-475.09
-455.95
-435.21
-409.98
-384.42
-365.61
-345.86
-319.86
-296.35
-273.05
-235.85
-189.01
-152.90
-133.51
-115.72
-85.41
-49.13
-24.75
-17.19
-13.59
0.05
22.77
41.50
53.96
70.70
86.80
91.00
88.17
84.77
78.82
62.05
35.06
22.83
40.69
69.92
90.77
105.07
119.49
133.39
143.38
147.19
150.62
161.44
178.27
188.40
165.51
108.41
73.12
91.53
119.47
124.04
123.12
127.14
129.75
136.37
149.92
158.73
157.43
154.21
160.00
173.91
160.39
72.45
-83.74
-254.68
-391.43
-459.68
-443.09
-349.56
-206.34
-57.66
66.75
171.80
258.51
313.67
342.79
358.90
362.71
357.65
350.43
342.13
319.48
241.23
90.64
-58.18
-109.08
-58.42
22.35
81.05
122.24
163.32
193.56
200.09
193.44
184.10
171.59
156.92
139.93
120.09
100.77
86.31
81.26
79.60
62.98
31.26
7.02
-1.74
-8.10
-22.13
-42.25
-58.31
-61.90
-58.89
-60.06
-68.34
-81.81
-94.98
-104.89
-117.05
-132.90
-148.27
-164.66
-178.02
-179.53
-175.49
-174.70
-171.27
-165.26
-166.02
-172.91
-180.34
-184.17
-179.31
-170.41
-164.93
-161.01
-158.55
-155.59
-142.01
-124.09
-120.06
-126.90
-133.05
-136.71
-136.40
-128.98
-116.13
-121.22
-181.01
-274.83
-319.86
-281.76
-212.09
-159.31
-120.31
-79.73
-40.63
-8.41
23.52
56.69
76.24
76.80
71.97
71.09
74.06
83.55
97.99
108.12
110.50
110.68
113.34
115.73
109.72
95.64
87.38
94.54
111.44
121.44
110.91
88.71
75.66
71.50
61.34
46.01
37.64
41.39
49.77
49.49
46.26
56.36
67.05
61.42
50.42
39.23
23.00
14.61
22.26
33.51
38.48
33.05
20.16
11.82
12.15
16.08
18.92
13.95
5.93
11.45
26.28
33.98
33.08
23.84
8.71
1.41
3.70
5.73
9.68
19.31
28.55
34.14
33.07
23.91
16.04
13.15
9.88
11.88
23.17
33.21
34.37
27.57
19.05
16.94
16.69
9.16
3.66
8.20
13.21
13.73
16.83
26.12
34.65
30.73
18.18
11.68
6.17
-7.06
-13.93
-9.01
-8.65
-17.99
-25.00
-21.82
-12.51
-6.83
-7.45
-8.28
-9.64
-16.56
-25.86
-32.34
-31.69
-21.12
-10.53
-9.37
-10.61
-7.79
-4.54
-4.57
-7.72
-8.69
-5.37
-5.95
-13.14
-19.26
-31.29
-81.65
-187.50
-316.28
-421.63
-488.82
-524.34
-524.55
-479.09
-400.37
-312.36
-215.51
-107.38
-6.75
77.30
152.15
218.61
275.98
323.35
349.14
349.22
338.81
334.69
336.99
334.75
330.94
333.54
332.10
318.81
302.07
286.87
274.76
267.98
260.12
245.37
227.70
207.30
181.61
156.88
136.89
119.65
103.47
83.05
60.24
44.08
33.16
24.95
17.75
0.07
-23.33
-34.09
-41.97
-60.78
-78.96
-98.77
-126.86
-144.18
-150.71
-162.72
-164.83
-147.21
-134.99
-142.04
-152.88
-147.80
-124.00
-102.59
-100.84
-112.78
-130.91
-148.82
-153.29
-149.17
-154.60
-164.16
-165.82
-165.78
-166.69
-160.91
-142.40
-111.83
-87.01
-87.42
-99.41
-97.87
-86.64
-79.91
-80.37
-85.37
-84.13
-71.84
-63.18
-66.49
-75.82
-84.93
-86.24
-77.66
-66.03
-55.64
-48.53
-44.30
-38.95
-31.87
-22.27
-7.79
6.00
12.29
13.38
15.09
19.85
26.30
28.26
22.86
16.83
15.09
16.87
22.32
28.69
33.94
39.27
38.44
28.82
25.45
35.94
48.80
56.74
60.97
63.08
66.90
72.73
80.31
93.65
105.23
100.65
85.09
73.30
64.99
56.57
54.51
59.78
61.72
54.13
45.48
46.02
52.09
56.13
59.38
59.69
52.75
47.12
50.14
58.43
66.98
66.84
54.83
44.79
40.23
30.17
18.31
16.53
19.77
18.44
36.81
116.43
230.46
285.54
248.29
180.20
127.63
80.82
33.50
-4.81
-35.06
-49.69
-9.42
113.08
278.55
418.35
502.50
535.88
525.67
479.30
395.89
255.84
68.83
-108.88
-248.88
-365.16
-453.99
-502.42
-523.87
-535.99
-541.31
-540.27
-537.31
-531.89
-518.70
-496.01
-470.27
-440.63
-397.25
-346.51
-306.34
-268.25
-199.48
-81.85
52.07
129.67
115.66
55.75
5.84
-25.31
-47.71
-64.83
-78.57
-86.25
-86.80
-85.55
-82.56
-71.15
-48.21
-21.64
-4.48
3.17
12.33
23.56
33.28
43.77
52.73
59.58
72.62
90.37
101.18
92.60
52.88
1.15
-10.49
29.37
83.58
132.61
175.27
201.70
212.34
220.04
227.61
232.93
237.55
240.87
244.54
248.91
254.60
285.67
372.53
497.59
603.44
650.73
633.70
555.82
428.99
287.05
161.84
61.30
6.50
25.86
84.46
113.74
98.68
63.90
23.45
-26.80
-96.08
-171.45
-226.08
-259.89
-278.34
-277.23
-278.68
-304.22
-338.07
-361.04
-368.55
-362.56
-353.75
-348.96
-341.21
-326.48
-307.76
-285.07
-259.83
-232.79
-202.17
-174.13
-152.28
-127.08
-102.05
-89.12
-80.80
-64.34
-42.53
-22.93
-12.28
-8.80
-3.16
2.43
6.47
21.13
39.55
42.84
41.58
47.66
60.34
106.78
191.61
238.12
203.30
146.94
116.67
90.51
47.61
10.95
5.26
12.75
9.10
6.17
14.33
19.71
19.01
22.56
32.33
43.12
48.62
49.88
60.38
74.83
46.21
-61.43
-205.22
-293.12
-282.88
-213.45
-135.41
-59.90
13.34
78.43
130.52
157.97
161.74
168.98
190.65
210.69
219.88
218.84
211.57
205.34
197.32
179.89
158.55
140.16
124.52
114.33
115.01
122.96
119.14
91.92
62.06
54.32
57.53
47.24
27.36
16.42
12.41
-0.49
-25.82
-47.44
-47.13
-33.13
-31.62
-49.04
-67.21
-67.90
-53.33
-48.35
-66.32
-83.37
-78.45
-68.16
-71.06
-76.51
-72.90
-70.59
-80.48
-88.30
-87.91
-133.20
-277.48
-480.98
-660.97
-773.78
-810.28
-769.68
-645.43
-443.98
-221.31
-44.26
78.12
178.54
273.58
347.29
383.87
399.11
414.99
424.10
415.57
400.00
382.59
354.43
316.13
279.14
252.55
236.14
221.27
202.02
181.08
160.71
144.75
135.71
121.78
98.43
84.32
83.93
76.59
53.22
25.22
2.72
-14.02
-32.73
-57.38
-78.79
-86.34
-79.39
-67.63
-65.94
-74.42
-82.77
-91.97
-103.85
-113.75
-124.39
-131.93
-124.44
-113.41
-115.14
-121.55
-126.80
-132.30
-130.77
-115.31
-73.75
-2.71
51.91
45.07
2.62
-30.35
-53.76
-82.41
-111.30
-126.66
-128.96
-134.21
-144.14
-141.31
-125.14
-114.50
-114.73
-114.45
-104.91
-87.97
-73.10
-65.05
-60.32
-59.32
-59.24
-50.32
-38.45
-34.45
-27.75
-13.47
-8.60
-15.98
-18.68
-10.76
-2.69
-25.42
-109.54
-218.33
-265.33
-222.00
-139.73
-71.17
-20.03
32.63
87.76
131.97
160.54
173.76
174.65
179.58
194.98
200.76
187.39
171.16
163.32
159.99
156.80
152.87
147.86
143.68
143.07
130.35
79.35
11.47
-12.73
14.78
44.73
56.74
68.16
83.12
90.53
86.18
74.19
65.06
63.66
56.89
39.71
34.63
54.45
77.81
80.83
66.42
53.53
54.50
67.28
80.99
85.95
80.74
71.04
59.27
52.25
85.92
194.79
337.91
413.61
371.40
259.83
147.48
49.95
-39.31
-108.39
-151.66
-183.46
-210.91
-231.27
-245.35
-250.32
-239.20
-215.01
-193.18
-184.50
-183.01
-180.49
-178.49
-177.24
-172.71
-166.03
-158.45
-150.76
-151.29
-161.86
-168.81
-163.07
-148.92
-130.43
-112.04
-97.63
-83.50
-68.35
-55.04
-44.54
-42.28
-47.46
-45.27
-35.32
-30.93
-28.43
-18.51
-5.37
9.75
26.39
37.66
46.71
57.90
57.27
33.37
1.08
-12.34
-3.46
6.66
10.71
20.61
33.24
36.29
40.26
58.59
81.26
93.65
93.19
89.45
94.80
103.19
99.15
87.43
82.23
85.17
95.75
111.89
120.04
108.16
79.59
53.94
51.16
60.82
55.33
36.66
26.00
27.25
40.72
66.90
82.59
68.97
46.27
40.38
46.60
43.41
25.82
11.47
7.28
1.34
-7.42
-13.34
-18.80
-21.19
-15.97
-8.69
-6.87
-15.84
-30.14
-32.82
-20.55
-7.55
-2.07
-3.00
-8.21
-14.25
-23.07
-36.84
-46.30
-48.52
-54.21
-62.70
-62.19
-49.77
-28.09
-5.46
3.92
0.70
-2.80
-4.63
-9.89
-19.16
-27.11
-26.90
-21.08
-21.85
-30.30
-32.56
-21.89
-10.32
-10.27
-13.83
-9.32
-5.05
-9.10
-12.32
-12.17
-14.87
-13.35
-4.09
0.76
