1922.00
1922.00
1922.00
1921.00
1921.00
1913.00
1919.00
1919.00
1915.00
1911.00
1909.00
1905.00
1904.00
1907.00
1909.00
1912.00
1919.00
1914.00
1913.00
1921.00
1926.00
1933.00
1932.00
1921.00
1936.00
1938.00
1936.00
1935.00
1931.00
1918.00
1904.00
1898.00
1898.00
1898.00
1883.00
1870.00
1863.00
1861.00
1867.00
1865.00
1857.00
1853.00
1847.00
1856.00
1858.00
1856.00
1865.00
1869.00
1873.00
1881.00
1883.00
1885.00
1882.00
1887.00
1889.00
1887.00
1887.00
1895.00
1898.00
1894.00
1894.00
1885.00
1887.00
1890.00
1885.00
1879.00
1878.00
1883.00
1879.00
1883.00
1883.00
1883.00
1888.00
1889.00
1893.00
1904.00
1907.00
1904.00
1904.00
1904.00
1904.00
1898.00
1903.00
1903.00
1902.00
1898.00
1900.00
1893.00
1893.00
1891.00
1902.00
1899.00
1904.00
1905.00
1905.00
1917.00
1921.00
1922.00
1918.00
1918.00
1919.00
1920.00
1933.00
1929.00
1926.00
1923.00
1924.00
1925.00
1925.00
1921.00
1919.00
1914.00
1921.00
1909.00
1901.00
1886.00
1874.00
1873.00
1872.00
1877.00
1886.00
1887.00
1887.00
1878.00
1872.00
1875.00
1872.00
1883.00
1889.00
1890.00
1893.00
1893.00
1893.00
1898.00
1895.00
1899.00
1903.00
1904.00
1900.00
1898.00
1899.00
1904.00
1905.00
1910.00
1909.00
1904.00
1903.00
1906.00
1908.00
1910.00
1907.00
1907.00
1904.00
1904.00
1903.00
1904.00
1910.00
1911.00
1918.00
1922.00
1923.00
1922.00
1924.00
1923.00
1923.00
1921.00
1921.00
1922.00
1927.00
1935.00
1933.00
1936.00
1936.00
1936.00
1938.00
1942.00
1942.00
1942.00
1936.00
1936.00
1936.00
1936.00
1936.00
1935.00
1934.00
1931.00
1934.00
1936.00
1930.00
1927.00
1934.00
1930.00
1929.00
1923.00
1936.00
1939.00
1946.00
1953.00
1959.00
1962.00
1961.00
1958.00
1957.00
1952.00
1942.00
1945.00
1946.00
1946.00
1947.00
1947.00
1947.00
1947.00
1947.00
1946.00
1951.00
1941.00
1940.00
1942.00
1935.00
1936.00
1941.00
1937.00
1938.00
1938.00
1937.00
1936.00
1935.00
1920.00
1915.00
1907.00
1915.00
1923.00
1914.00
1917.00
1914.00
1917.00
1925.00
1921.00
1917.00
1917.00
1918.00
1915.00
1911.00
1910.00
1908.00
1906.00
1905.00
1908.00
1915.00
1924.00
1923.00
1918.00
1910.00
1905.00
1906.00
1911.00
1916.00
1921.00
1918.00
1911.00
1914.00
1910.00
1907.00
1913.00
1913.00
1910.00
1910.00
1919.00
1920.00
1927.00
1930.00
1929.00
1920.00
1929.00
1920.00
1921.00
1929.00
1930.00
1933.00
1934.00
1926.00
1919.00
1919.00
1917.00
1909.00
1915.00
1906.00
1907.00
1909.00
1905.00
1907.00
1917.00
1917.00
1921.00
1932.00
1922.00
1931.00
1928.00
1933.00
1931.00
1925.00
1921.00
1926.00
1931.00
1927.00
1923.00
1930.00
1926.00
1934.00
1936.00
1936.00
1936.00
1938.00
1942.00
1939.00
1938.00
1940.00
1935.00
1932.00
1925.00
1923.00
1922.00
1918.00
1920.00
1929.00
1927.00
1922.00
1919.00
1920.00
1919.00
1920.00
1917.00
1912.00
1907.00
1907.00
1904.00
1909.00
1910.00
1919.00
1926.00
1930.00
1934.00
1933.00
1925.00
1919.00
1921.00
1930.00
1936.00
1949.00
1949.00
1942.00
1942.00
1936.00
1938.00
1936.00
1936.00
1936.00
1936.00
1934.00
1929.00
1931.00
1927.00
1923.00
1932.00
1935.00
1936.00
1938.00
1938.00
1947.00
1955.00
1947.00
1946.00
1936.00
1935.00
1935.00
1931.00
1925.00
1935.00
1934.00
1934.00
1930.00
1930.00
1932.00
1936.00
1936.00
1939.00
1937.00
1934.00
1932.00
1923.00
1920.00
1919.00
1922.00
1927.00
1923.00
1923.00
1919.00
1926.00
1920.00
1916.00
1909.00
1911.00
1911.00
1911.00
1910.00
1918.00
1915.00
1918.00
1920.00
1916.00
1914.00
1919.00
1919.00
1921.00
1926.00
1921.00
1923.00
1919.00
1922.00
1925.00
1923.00
1925.00
1931.00
1934.00
1939.00
1938.00
1945.00
1946.00
1949.00
1948.00
1948.00
1951.00
1945.00
1933.00
1934.00
1927.00
1926.00
1925.00
1923.00
1919.00
1910.00
1906.00
1911.00
1913.00
1917.00
1915.00
1919.00
1918.00
1920.00
1923.00
1929.00
1925.00
1921.00
1923.00
1920.00
1931.00
1933.00
1933.00
1931.00
1923.00
1923.00
1925.00
1922.00
1922.00
1925.00
1922.00
1917.00
1917.00
1913.00
1911.00
1916.00
1911.00
1922.00
1915.00
1911.00
1911.00
1911.00
1906.00
1905.00
1904.00
1909.00
1925.00
1925.00
1917.00
1926.00
1920.00
1922.00
1923.00
1922.00
1941.00
1935.00
1938.00
1936.00
1948.00
1946.00
1942.00
1925.00
1931.00
1925.00
1919.00
1917.00
1919.00
1915.00
1915.00
1914.00
1914.00
1919.00
1923.00
1918.00
1909.00
1919.00
1915.00
1904.00
1904.00
1895.00
1906.00
1910.00
1907.00
1911.00
1903.00
1905.00
1903.00
1892.00
1895.00
1902.00
1898.00
1904.00
1905.00
1898.00
1908.00
1904.00
1902.00
1899.00
1893.00
1891.00
1887.00
1887.00
1888.00
1894.00
1902.00
1903.00
1904.00
1904.00
1898.00
1903.00
1898.00
1895.00
1899.00
1904.00
1898.00
1901.00
1900.00
1897.00
1891.00
1891.00
1891.00
1903.00
1903.00
1901.00
1891.00
1889.00
1886.00
1887.00
1891.00
1901.00
1907.00
1905.00
1921.00
1909.00
1910.00
1913.00
1911.00
1913.00
1911.00
1910.00
1904.00
1899.00
1889.00
1891.00
1894.00
1893.00
1889.00
1894.00
1893.00
1899.00
1891.00
1887.00
1883.00
1887.00
1889.00
1886.00
1889.00
1893.00
1891.00
1895.00
1891.00
1902.00
1903.00
1902.00
1907.00
1904.00
1907.00
1909.00
1908.00
1907.00
1913.00
1907.00
1904.00
1911.00
1913.00
1911.00
1911.00
1915.00
1920.00
1915.00
1910.00
1911.00
1905.00
1904.00
1905.00
1908.00
1914.00
1917.00
1920.00
1918.00
1930.00
1936.00
1940.00
1938.00
1941.00
1939.00
1947.00
1941.00
1936.00
1929.00
1925.00
1926.00
1927.00
1934.00
1928.00
1924.00
1931.00
1930.00
1918.00
1913.00
1907.00
1911.00
1917.00
1923.00
1923.00
1917.00
1907.00
1912.00
1907.00
1905.00
1907.00
1904.00
1913.00
1916.00
1920.00
1923.00
1921.00
1917.00
1916.00
1909.00
1907.00
1911.00
1908.00
1905.00
1908.00
1917.00
1918.00
1915.00
1924.00
1921.00
1919.00
1920.00
1911.00
1908.00
1908.00
1920.00
1914.00
1913.00
1904.00
1911.00
1917.00
1916.00
1914.00
1920.00
1921.00
1919.00
1926.00
1923.00
1919.00
1920.00
1919.00
1919.00
1922.00
1926.00
1935.00
1932.00
1935.00
1936.00
1935.00
1936.00
1934.00
1936.00
1931.00
1935.00
1939.00
1939.00
1949.00
1943.00
1937.00
1942.00
1949.00
1942.00
1937.00
1937.00
1936.00
1936.00
1936.00
1921.00
1926.00
1923.00
1920.00
1917.00
1907.00
1905.00
1908.00
1911.00
1905.00
1904.00
1904.00
1899.00
1892.00
1906.00
1914.00
1920.00
1921.00
1923.00
1926.00
1922.00
1923.00
1923.00
1925.00
1927.00
1919.00
1918.00
1921.00
1920.00
1921.00
1930.00
1931.00
1933.00
1926.00
1924.00
1920.00
1917.00
1907.00
1918.00
1919.00
1919.00
1925.00
1923.00
1920.00
1911.00
1907.00
1909.00
1905.00
1909.00
1905.00
1901.00
1893.00
1893.00
1894.00
1899.00
1891.00
1880.00
1887.00
1886.00
1890.00
1898.00
1907.00
1905.00
1907.00
1908.00
1903.00
1905.00
1906.00
1908.00
1915.00
1911.00
1915.00
1913.00
1911.00
1911.00
1911.00
1909.00
1911.00
1919.00
1917.00
1906.00
1901.00
1897.00
1903.00
1905.00
1905.00
1907.00
1915.00
1919.00
1921.00
1922.00
1933.00
1933.00
1937.00
1939.00
1941.00
1938.00
1943.00
1936.00
1935.00
1931.00
1927.00
1925.00
1926.00
1926.00
1924.00
1923.00
1922.00
1920.00
1922.00
1921.00
1920.00
1923.00
1927.00
1930.00
1931.00
1933.00
1929.00
1932.00
1927.00
1923.00
1927.00
1923.00
1923.00
1915.00
1918.00
1917.00
1917.00
1921.00
1920.00
1920.00
1919.00
1917.00
1911.00
1907.00
1907.00
1909.00
1911.00
1905.00
1895.00
1904.00
1903.00
1904.00
1898.00
1897.00
1895.00
1892.00
1894.00
1902.00
1915.00
1904.00
1907.00
1909.00
1910.00
1909.00
1909.00
1907.00
1904.00
1911.00
1917.00
1920.00
1930.00
1927.00
1926.00
1926.00
1930.00
1923.00
1933.00
1920.00
1917.00
1916.00
1918.00
1911.00
1915.00
1915.00
1911.00
1908.00
1907.00
1913.00
1913.00
1906.00
1910.00
1915.00
1913.00
1911.00
1916.00
1918.00
1920.00
1918.00
1917.00
1909.00
1911.00
1917.00
1921.00
1923.00
1925.00
1925.00
1920.00
1913.00
1909.00
1906.00
1913.00
1911.00
1909.00
1905.00
1907.00
1909.00
1914.00
1914.00
1909.00
1904.00
1904.00
1909.00
1905.00
1914.00
1919.00
1919.00
1919.00
1919.00
1919.00
1914.00
1905.00
1911.00
1915.00
1918.00
1919.00
1919.00
1922.00
1915.00
1914.00
1914.00
1906.00
1908.00
1911.00
1919.00
1923.00
1926.00
1927.00
1926.00
1926.00
1926.00
1925.00
1923.00
1919.00
1920.00
1921.00
1920.00
1921.00
1920.00
1917.00
1919.00
1918.00
1914.00
1914.00
1917.00
1914.00
1909.00
1917.00
1922.00
1925.00
1936.00
1936.00
1927.00
1924.00
1916.00
1918.00
1913.00
1915.00
1909.00
1909.00
1909.00
1910.00
1909.00
1905.00
1904.00
1904.00
1907.00
1906.00
1906.00
1911.00
1918.00
1921.00
1925.00
1930.00
1931.00
1923.00
1910.00
1905.00
1911.00
1908.00
1907.00
1905.00
1907.00
1907.00
1904.00
1903.00
1905.00
1907.00
1901.00
1898.00
1898.00
1894.00
1893.00
1893.00
1883.00
1874.00
1872.00
1878.00
1873.00
1863.00
1867.00
1866.00
1858.00
1855.00
1860.00
1869.00
1872.00
1883.00
1895.00
1905.00
1911.00
1915.00
1922.00
1932.00
1934.00
1936.00
1938.00
1938.00
1936.00
1936.00
1936.00
1938.00
1937.00
1936.00
1936.00
1935.00
1934.00
1922.00
1915.00
1914.00
1915.00
1911.00
1909.00
1914.00
1920.00
1923.00
1923.00
1923.00
1926.00
1927.00
1935.00
1925.00
1931.00
1931.00
1925.00
1923.00
1931.00
1929.00
1926.00
1934.00
1927.00
1923.00
1927.00
1927.00
1923.00
1917.00
1913.00
1911.00
1907.00
1910.00
1913.00
1909.00
1910.00
1909.00
1904.00
1904.00
1904.00
1914.00
1915.00
1923.00
1924.00
1927.00
1925.00
1922.00
1927.00
1927.00
1927.00
1932.00
1935.00
1937.00
1933.00
1929.00
1925.00
1931.00
1931.00
1934.00
1936.00
1939.00
1946.00
1940.00
1940.00
1938.00
1938.00
1937.00
1936.00
1942.00
1927.00
1930.00
1928.00
1923.00
1923.00
1921.00
1920.00
1911.00
1911.00
1911.00
1908.00
1911.00
1921.00
1917.00
1920.00
1919.00
1913.00
1913.00
1913.00
1910.00
1918.00
1930.00
1936.00
1932.00
1930.00
1930.00
1925.00
1926.00
1929.00
1930.00
1924.00
1927.00
1924.00
1918.00
1918.00
1915.00
1906.00
1909.00
1909.00
1918.00
1920.00
1932.00
1933.00
1933.00
1933.00
1936.00
1934.00
1934.00
1939.00
1941.00
1941.00
1941.00
1936.00
1936.00
1934.00
1931.00
1926.00
1922.00
1929.00
1929.00
1927.00
1923.00
1918.00
1910.00
1904.00
1902.00
1894.00
1907.00
1916.00
1921.00
1926.00
1931.00
1931.00
1937.00
1943.00
1936.00
1935.00
1938.00
1936.00
1935.00
1932.00
1926.00
1909.00
1914.00
1913.00
1906.00
1905.00
1910.00
1910.00
1911.00
1907.00
1904.00
1903.00
1899.00
1907.00
1907.00
1901.00
1906.00
1906.00
1905.00
1904.00
1904.00
1904.00
1909.00
1913.00
1917.00
1918.00
1911.00
1905.00
1909.00
1915.00
1917.00
1922.00
1921.00
1923.00
1913.00
1904.00
1907.00
1904.00
1909.00
1915.00
1918.00
1919.00
1913.00
1911.00
1909.00
1915.00
1915.00
1913.00
1918.00
1911.00
1916.00
1911.00
1909.00
1905.00
1895.00
1891.00
1878.00
1881.00
1879.00
1872.00
1861.00
1869.00
1862.00
1857.00
1854.00
1850.00
1847.00
1845.00
1843.00
1839.00
1843.00
1847.00
1853.00
1860.00
1869.00
1872.00
1872.00
1875.00
1882.00
1885.00
1895.00
1895.00
1893.00
1893.00
1894.00
1898.00
1904.00
1909.00
1911.00
1910.00
1917.00
1919.00
1921.00
1923.00
1936.00
1941.00
1955.00
1955.00
1955.00
1958.00
1963.00
1951.00
1950.00
1949.00
1950.00
1946.00
1952.00
1952.00
1936.00
1947.00
1940.00
1941.00
1947.00
1945.00
1946.00
1939.00
1936.00
1936.00
1935.00
1938.00
1950.00
1950.00
1955.00
1955.00
1939.00
1953.00
1959.00
1963.00
1961.00
1958.00
1954.00
1951.00
1949.00
1945.00
1939.00
1937.00
1943.00
1946.00
1951.00
1953.00
1946.00
1952.00
1949.00
1941.00
1947.00
1942.00
1948.00
1947.00
1948.00
1947.00
1946.00
1943.00
1935.00
1934.00
1936.00
1936.00
1936.00
1926.00
1920.00
1925.00
1934.00
1922.00
1926.00
1927.00
1931.00
1938.00
1936.00
1936.00
1931.00
1929.00
1929.00
1927.00
1922.00
1934.00
1934.00
1932.00
1931.00
1927.00
1931.00
1929.00
1934.00
1927.00
1922.00
1917.00
1918.00
1917.00
1910.00
1910.00
1911.00
1906.00
1905.00
1914.00
1909.00
1909.00
1910.00
1915.00
1917.00
1917.00
1917.00
1923.00
1915.00
1920.00
1925.00
1925.00
1926.00
1926.00
1920.00
1913.00
1923.00
1907.00
1909.00
1905.00
1904.00
1902.00
1903.00
1907.00
1909.00
1919.00
1917.00
1917.00
1921.00
1920.00
1920.00
1923.00
1924.00
1920.00
1921.00
1920.00
1914.00
1906.00
1904.00
1909.00
1909.00
1904.00
1903.00
1903.00
1903.00
1905.00
1904.00
1904.00
1907.00
1910.00
1911.00
1914.00
1915.00
1917.00
1911.00
1906.00
1909.00
1913.00
1911.00
1909.00
1910.00
1910.00
1905.00
1911.00
1906.00
1906.00
1907.00
1904.00
1905.00
1910.00
1911.00
1909.00
1909.00
1909.00
1918.00
1923.00
1934.00
1936.00
1939.00
1941.00
1936.00
1931.00
1931.00
1926.00
1930.00
1922.00
1920.00
1927.00
1917.00
1904.00
1902.00
1900.00
1903.00
1903.00
1906.00
1910.00
1908.00
1914.00
1915.00
1922.00
1921.00
1910.00
1922.00
1921.00
1927.00
1929.00
1932.00
1927.00
1919.00
1919.00
1915.00
1906.00
1911.00
1910.00
1907.00
1903.00
1899.00
1891.00
1889.00
1879.00
1872.00
1868.00
1874.00
1883.00
1892.00
1895.00
1904.00
1913.00
1917.00
1915.00
1913.00
1920.00
1929.00
1936.00
1939.00
1941.00
1935.00
1935.00
1935.00
1931.00
1933.00
1927.00
1922.00
1922.00
1915.00
1919.00
1919.00
1915.00
1914.00
1913.00
1913.00
1910.00
1910.00
1910.00
1907.00
1907.00
1920.00
1925.00
1930.00
1935.00
1933.00
1934.00
1936.00
1933.00
1936.00
1938.00
1940.00
1936.00
1939.00
1947.00
1947.00
1950.00
1953.00
1957.00
1957.00
1954.00
1953.00
1957.00
1951.00
1941.00
1948.00
1940.00
1929.00
1927.00
1927.00
1923.00
1935.00
1935.00
1934.00
1934.00
1933.00
1926.00
1919.00
1913.00
1903.00
1904.00
1903.00
1902.00
1904.00
1905.00
1909.00
1909.00
1908.00
1903.00
1904.00
1905.00
1904.00
1906.00
1906.00
1911.00
1921.00
1919.00
1926.00
1923.00
1924.00
1926.00
1926.00
1922.00
1927.00
1932.00
1936.00
1936.00
1934.00
1923.00
1931.00
1935.00
1934.00
1934.00
1936.00
1936.00
1942.00
1938.00
1936.00
1936.00
1937.00
1937.00
1936.00
1936.00
1935.00
1929.00
1936.00
1936.00
1945.00
1941.00
1936.00
1938.00
1945.00
1939.00
1936.00
1936.00
1936.00
1933.00
1931.00
1933.00
1935.00
1933.00
1936.00
1935.00
1926.00
1930.00
1921.00
1925.00
1918.00
1909.00
1904.00
1901.00
1904.00
1903.00
1902.00
1903.00
1888.00
1904.00
1904.00
1898.00
1903.00
1899.00
1910.00
1911.00
1916.00
1914.00
1919.00
1922.00
1923.00
1925.00
1918.00
1919.00
1920.00
1917.00
1914.00
1911.00
1911.00
1918.00
1913.00
1906.00
1911.00
1906.00
1906.00
1905.00
1902.00
1898.00
1898.00
1894.00
1892.00
1891.00
1890.00
1895.00
1891.00
1893.00
1887.00
1886.00
1889.00
1887.00
1889.00
1897.00
1901.00
1903.00
1904.00
1908.00
1907.00
1911.00
1910.00
1920.00
1918.00
1934.00
1937.00
1941.00
1942.00
1937.00
1934.00
1936.00
1930.00
1925.00
1934.00
1937.00
1936.00
1942.00
1942.00
1942.00
1942.00
1936.00
1930.00
1922.00
1923.00
1924.00
1927.00
1930.00
1931.00
1925.00
1924.00
1925.00
1921.00
1923.00
1925.00
1924.00
1927.00
1920.00
1920.00
1904.00
1915.00
1918.00
1922.00
1921.00
1919.00
1917.00
1915.00
1915.00
1912.00
1918.00
1920.00
1920.00
1926.00
1932.00
1936.00
1950.00
1949.00
1946.00
1938.00
1936.00
1938.00
1933.00
1930.00
1925.00
1926.00
1930.00
1936.00
1936.00
1926.00
1920.00
1926.00
1926.00
1927.00
1931.00
1933.00
1936.00
1936.00
1934.00
1936.00
1941.00
1945.00
1945.00
1945.00
1947.00
1943.00
1941.00
1936.00
1935.00
1936.00
1933.00
1927.00
1927.00
1924.00
1930.00
1933.00
1935.00
1931.00
1933.00
1931.00
1934.00
1935.00
1939.00
1940.00
1933.00
1936.00
1939.00
1936.00
1936.00
1931.00
1923.00
1923.00
1920.00
1926.00
1921.00
1919.00
1925.00
1921.00
1920.00
1919.00
1919.00
1914.00
1910.00
1915.00
1914.00
1910.00
1916.00
1917.00
1917.00
1919.00
1919.00
1919.00
1925.00
1923.00
1926.00
1921.00
1921.00
1925.00
1931.00
1930.00
1930.00
1926.00
1922.00
1922.00
1921.00
1921.00
1923.00
1920.00
1924.00
1926.00
1917.00
1914.00
1906.00
1899.00
1892.00
1891.00
1887.00
1889.00
1891.00
1895.00
1893.00
1902.00
1904.00
1904.00
1902.00
1901.00
1904.00
1905.00
1905.00
1903.00
1899.00
1902.00
1902.00
1907.00
1904.00
1911.00
1910.00
1911.00
1908.00
1909.00
1907.00
1906.00
1915.00
1922.00
1926.00
1925.00
1922.00
1923.00
1919.00
1925.00
1931.00
1926.00
1927.00
1933.00
1931.00
1927.00
1920.00
1915.00
1910.00
1913.00
1915.00
1911.00
1911.00
1914.00
1911.00
1909.00
1918.00
1919.00
1918.00
1916.00
1915.00
1914.00
1915.00
1922.00
1926.00
1933.00
1941.00
1946.00
1951.00
1954.00
1962.00
1966.00
1961.00
1957.00
1962.00
1958.00
1962.00
1958.00
1959.00
1962.00
1965.00
1959.00
1963.00
1957.00
1961.00
1950.00
1938.00
1938.00
1936.00
1929.00
1927.00
1930.00
1927.00
1926.00
1921.00
1915.00
1914.00
1921.00
1926.00
1927.00
1922.00
1919.00
1918.00
1911.00
1916.00
1915.00
1919.00
1925.00
1917.00
1917.00
1917.00
1914.00
1918.00
1918.00
1920.00
1924.00
1918.00
1911.00
1911.00
1911.00
1914.00
1919.00
1925.00
1933.00
1935.00
1931.00
1933.00
1933.00
1930.00
1925.00
1927.00
1925.00
1933.00
1927.00
1923.00
1926.00
1923.00
1919.00
1917.00
1906.00
1899.00
1898.00
1900.00
1895.00
1904.00
1909.00
1915.00
1918.00
1920.00
1922.00
1927.00
1926.00
1927.00
1932.00
1929.00
1931.00
1933.00
1935.00
1936.00
1947.00
1942.00
1945.00
1940.00
1939.00
1936.00
1937.00
1941.00
1936.00
1936.00
1927.00
1919.00
1907.00
1902.00
1893.00
1882.00
1877.00
1870.00
1857.00
1843.00
1840.00
1833.00
1822.00
1810.00
1808.00
1804.00
1793.00
1795.00
1800.00
1801.00
1795.00
1792.00
1799.00
1808.00
1831.00
1852.00
1867.00
1879.00
1889.00
1897.00
1904.00
1913.00
1923.00
1931.00
1931.00
1936.00
1931.00
1924.00
1919.00
1930.00
1939.00
1946.00
1945.00
1943.00
1943.00
1951.00
1947.00
1951.00
1949.00
1952.00
1993.00
1971.00
1968.00
1991.00
2006.00
1975.00
1958.00
1973.00
1954.00
1944.00
1947.00
1947.00
1943.00
1948.00
1946.00
1946.00
1949.00
1941.00
1953.00
1936.00
1936.00
1937.00
1938.00
1943.00
1938.00
1918.00
1935.00
1927.00
1930.00
1931.00
1930.00
1934.00
1934.00
1936.00
1945.00
1942.00
1936.00
1934.00
1927.00
1926.00
1926.00
1924.00
1930.00
1922.00
1934.00
1935.00
1937.00
1941.00
1943.00
1941.00
1927.00
1921.00
1915.00
1910.00
1911.00
1912.00
1916.00
1907.00
1901.00
1904.00
1911.00
1925.00
1920.00
1921.00
1923.00
1927.00
1926.00
1924.00
1926.00
1927.00
1923.00
1922.00
1930.00
1926.00
1931.00
1933.00
1930.00
1931.00
1930.00
1926.00
1920.00
1917.00
1919.00
1919.00
1914.00
1918.00
1919.00
1910.00
1911.00
1920.00
1922.00
1926.00
1934.00
1936.00
1935.00
1934.00
1929.00
1925.00
1921.00
1920.00
1915.00
1917.00
1915.00
1917.00
1918.00
1911.00
1909.00
1917.00
1922.00
1927.00
1930.00
1926.00
1930.00
1927.00
1926.00
1920.00
1919.00
1920.00
1915.00
1915.00
1916.00
1913.00
1916.00
1917.00
1915.00
1925.00
1930.00
1931.00
1930.00
1925.00
1920.00
1916.00
1919.00
1920.00
1924.00
1921.00
1922.00
1923.00
1920.00
1918.00
1915.00
1915.00
1907.00
1906.00
1921.00
1906.00
1907.00
1906.00
1907.00
1911.00
1916.00
1917.00
1924.00
1923.00
1923.00
1922.00
1913.00
1913.00
1904.00
1904.00
1903.00
1904.00
1909.00
1910.00
1913.00
1919.00
1914.00
1909.00
1910.00
1908.00
1911.00
1905.00
1893.00
1907.00
1906.00
1909.00
1910.00
1919.00
1921.00
1913.00
1922.00
1931.00
1936.00
1939.00
1930.00
1918.00
1909.00
1907.00
1907.00
1911.00
1917.00
1921.00
1923.00
1922.00
1923.00
1923.00
1918.00
1918.00
1920.00
1919.00
1919.00
1923.00
1923.00
1919.00
1918.00
1924.00
1921.00
1920.00
1920.00
1921.00
1919.00
1919.00
1924.00
1932.00
1934.00
1933.00
1928.00
1927.00
1925.00
1919.00
1913.00
1913.00
1912.00
1914.00
1919.00
1921.00
1922.00
1923.00
1926.00
1923.00
1923.00
1931.00
1935.00
1945.00
1948.00
1945.00
1946.00
1943.00
1939.00
1936.00
1925.00
1921.00
1920.00
1918.00
1915.00
1922.00
1922.00
1924.00
1923.00
1922.00
1919.00
1920.00
1923.00
1921.00
1920.00
1929.00
1924.00
1923.00
1918.00
1918.00
1918.00
1921.00
1924.00
1923.00
1923.00
1926.00
1921.00
1924.00
1926.00
1927.00
1936.00
1947.00
1938.00
1937.00
1936.00
1942.00
1939.00
1949.00
1949.00
1954.00
1952.00
1952.00
1957.00
1949.00
1951.00
1947.00
1936.00
1936.00
1936.00
1936.00
1936.00
1936.00
1935.00
1929.00
1933.00
1929.00
1933.00
1926.00
1927.00
1933.00
1930.00
1931.00
1936.00
1936.00
1934.00
1931.00
1927.00
1920.00
1917.00
1917.00
1911.00
1920.00
1920.00
1916.00
1919.00
1926.00
1920.00
1925.00
1921.00
1923.00
1927.00
1931.00
1930.00
1920.00
1910.00
1905.00
1904.00
1891.00
1901.00
1903.00
1904.00
1909.00
1908.00
1907.00
1919.00
1911.00
1907.00
1905.00
1904.00
1904.00
1899.00
1903.00
1903.00
1904.00
1901.00
1904.00
1899.00
1909.00
1910.00
1909.00
1917.00
1923.00
1930.00
1935.00
1935.00
1935.00
1931.00
1933.00
1927.00
1935.00
1933.00
1920.00
1921.00
1936.00
1935.00
1938.00
1943.00
1940.00
1939.00
1937.00
1931.00
1931.00
1926.00
1923.00
1918.00
1910.00
1907.00
1909.00
1904.00
1905.00
1906.00
1910.00
1917.00
1921.00
1927.00
1927.00
1936.00
1930.00
1935.00
1937.00
1936.00
1937.00
1929.00
1923.00
1921.00
1922.00
1923.00
1917.00
1911.00
1904.00
1904.00
1904.00
1913.00
1909.00
1911.00
1906.00
1911.00
1907.00
1909.00
1906.00
1906.00
1907.00
1909.00
1910.00
1904.00
1914.00
1911.00
1913.00
1911.00
1919.00
1916.00
1919.00
1918.00
1918.00
1909.00
1904.00
1903.00
1899.00
1902.00
1899.00
1904.00
1903.00
1904.00
1907.00
1909.00
1917.00
1926.00
1923.00
1917.00
1923.00
1933.00
1931.00
1930.00
1932.00
1934.00
1929.00
1927.00
1921.00
1918.00
1917.00
1918.00
1914.00
1913.00
1917.00
1906.00
1906.00
1906.00
1911.00
1917.00
1919.00
1919.00
1919.00
1922.00
1922.00
1922.00
1927.00
1926.00
1922.00
1923.00
1921.00
1917.00
1918.00
1921.00
1927.00
1934.00
1933.00
1936.00
1936.00
1933.00
1931.00
1938.00
1934.00
1933.00
1931.00
1924.00
1922.00
1913.00
1918.00
1919.00
1923.00
1921.00
1917.00
1906.00
1903.00
1904.00
1901.00
1898.00
1899.00
1892.00
1889.00
1898.00
1902.00
1902.00
1902.00
1907.00
1919.00
1914.00
1920.00
1923.00
1923.00
1922.00
1921.00
1923.00
1927.00
1922.00
1921.00
1926.00
1931.00
1931.00
1927.00
1929.00
1929.00
1931.00
1931.00
1934.00
1933.00
1933.00
1930.00
1922.00
1921.00
1921.00
1919.00
1923.00
1927.00
1923.00
1926.00
1926.00
1921.00
1915.00
1913.00
1918.00
1907.00
1904.00
1918.00
1913.00
1911.00
1914.00
1915.00
1915.00
1921.00
1923.00
1915.00
1919.00
1914.00
1915.00
1917.00
1912.00
1919.00
1925.00
1926.00
1927.00
1922.00
1926.00
1935.00
1934.00
1936.00
1933.00
1925.00
1925.00
1923.00
1918.00
1918.00
1920.00
1923.00
1929.00
1922.00
1918.00
1918.00
1923.00
1923.00
1922.00
1926.00
1927.00
1924.00
1921.00
1915.00
1920.00
1922.00
1925.00
1923.00
1919.00
1917.00
1935.00
1926.00
1927.00
1924.00
1926.00
1921.00
1921.00
1925.00
1930.00
1934.00
1926.00
1927.00
1914.00
1914.00
1907.00
1904.00
1901.00
1895.00
1894.00
1893.00
1891.00
1887.00
1882.00
1884.00
1887.00
1894.00
1894.00
1893.00
1886.00
1893.00
1886.00
1881.00
1883.00
1894.00
1899.00
1900.00
1900.00
1903.00
1904.00
1909.00
1915.00
1915.00
1926.00
1934.00
1936.00
1938.00
1936.00
1936.00
1936.00
1934.00
1936.00
1932.00
1925.00
1927.00
1935.00
1935.00
1936.00
1926.00
1920.00
1922.00
1919.00
1921.00
1928.00
1923.00
1926.00
1919.00
1916.00
1915.00
1913.00
1910.00
1915.00
1915.00
1905.00
1904.00
1899.00
1894.00
1893.00
1895.00
1898.00
1904.00
1909.00
1920.00
1930.00
1926.00
1923.00
1923.00
1911.00
1902.00
1891.00
1887.00
1897.00
1898.00
1904.00
1905.00
1907.00
1907.00
1917.00
1920.00
1920.00
1923.00
1923.00
1930.00
1927.00
1923.00
1923.00
1925.00
1927.00
1926.00
1925.00
1927.00
1924.00
1933.00
1938.00
1943.00
1945.00
1951.00
1957.00
1965.00
1968.00
1964.00
1954.00
1948.00
1941.00
1937.00
1936.00
1931.00
1923.00
1926.00
1915.00
1918.00
1927.00
1925.00
1931.00
1930.00
1933.00
1931.00
1926.00
1920.00
1915.00
1908.00
1905.00
1904.00
1904.00
1904.00
1907.00
1911.00
1919.00
1921.00
1923.00
1918.00
1921.00
1923.00
1920.00
1924.00
1917.00
1915.00
1913.00
1915.00
1915.00
1914.00
1917.00
1914.00
1917.00
1919.00
1920.00
1925.00
1929.00
1934.00
1930.00
1934.00
1933.00
1930.00
1921.00
1920.00
1923.00
1920.00
1919.00
1918.00
1915.00
1914.00
1918.00
1918.00
1913.00
1915.00
1919.00
1913.00
1915.00
1921.00
1926.00
1932.00
1934.00
1929.00
1929.00
1923.00
1930.00
1920.00
1921.00
1920.00
1917.00
1911.00
1905.00
1907.00
1909.00
1909.00
1914.00
1921.00
1921.00
1923.00
1923.00
1921.00
1919.00
1919.00
1920.00
1919.00
1916.00
1906.00
1910.00
1921.00
1929.00
1931.00
1930.00
1926.00
1922.00
1920.00
1933.00
1935.00
1942.00
1941.00
1939.00
1946.00
1949.00
1950.00
1955.00
1955.00
1954.00
1943.00
1937.00
1927.00
1927.00
1925.00
1929.00
1936.00
1933.00
1934.00
1936.00
1935.00
1925.00
1920.00
1916.00
1920.00
1932.00
1923.00
1925.00
1919.00
1919.00
1916.00
1913.00
1912.00
1909.00
1907.00
1910.00
1906.00
1904.00
1904.00
1901.00
1899.00
1896.00
1882.00
1895.00
1895.00
1896.00
1904.00
1903.00
1901.00
1902.00
1904.00
1904.00
1909.00
1911.00
1915.00
1915.00
1914.00
1911.00
1913.00
1905.00
1904.00
1899.00
1904.00
1900.00
1904.00
1910.00
1908.00
1910.00
1909.00
1911.00
1913.00
1908.00
1905.00
1907.00
1914.00
1915.00
1917.00
1922.00
1913.00
1910.00
1907.00
1907.00
1909.00
1907.00
1906.00
1904.00
1899.00
1902.00
1890.00
1891.00
1891.00
1885.00
1887.00
1886.00
1886.00
1883.00
1885.00
1888.00
1890.00
1898.00
1900.00
1890.00
1891.00
1904.00
1906.00
1910.00
1913.00
1915.00
1915.00
1918.00
1920.00
1920.00
1918.00
1919.00
1922.00
1919.00
1915.00
1918.00
1921.00
1920.00
1920.00
1917.00
1915.00
1913.00
1913.00
1920.00
1916.00
1915.00
1918.00
1919.00
1925.00
1927.00
1920.00
1921.00
1922.00
1926.00
1923.00
1923.00
1930.00
1936.00
1936.00
1939.00
1936.00
1936.00
1936.00
1935.00
1934.00
1926.00
1924.00
1925.00
1932.00
1937.00
1936.00
1936.00
1936.00
1934.00
1931.00
1931.00
1926.00
1925.00
1930.00
1932.00
1921.00
1923.00
1920.00
1911.00
1920.00
1922.00
1929.00
1927.00
1922.00
1916.00
1919.00
1919.00
1917.00
1923.00
1926.00
1922.00
1931.00
1933.00
1935.00
1935.00
1934.00
1932.00
1930.00
1923.00
1921.00
1915.00
1911.00
1914.00
1922.00
1920.00
1921.00
1920.00
1919.00
1922.00
1920.00
1925.00
1929.00
1935.00
1936.00
1939.00
1936.00
1934.00
1926.00
1919.00
1907.00
1902.00
1894.00
1886.00
1886.00
1893.00
1893.00
1890.00
1887.00
1883.00
1890.00
1886.00
1883.00
1875.00
1879.00
1882.00
1888.00
1889.00
1892.00
1902.00
1903.00
1904.00
1906.00
1904.00
1905.00
1907.00
1904.00
1909.00
1918.00
1920.00
1921.00
1923.00
1922.00
1925.00
1935.00
1933.00
1936.00
1941.00
1941.00
1939.00
1936.00
1935.00
1934.00
1925.00
1925.00
1924.00
1921.00
1915.00
1915.00
1915.00
1915.00
1916.00
1913.00
1912.00
1919.00
1924.00
1926.00
1927.00
1925.00
1922.00
1924.00
1919.00
1915.00
1916.00
1915.00
1916.00
1921.00
1927.00
1925.00
1922.00
1924.00
1926.00
1926.00
1930.00
1923.00
1918.00
1918.00
1915.00
1913.00
1912.00
1915.00
1919.00
1921.00
1920.00
1921.00
1921.00
1920.00
1909.00
1904.00
1899.00
1895.00
1890.00
1899.00
1903.00
1901.00
1904.00
1904.00
1904.00
1913.00
1913.00
1913.00
1919.00
1919.00
1919.00
1914.00
1903.00
1907.00
1907.00
1915.00
1911.00
1903.00
1904.00
1904.00
1905.00
1907.00
1911.00
1908.00
1904.00
1904.00
1901.00
1902.00
1898.00
1899.00
1897.00
1899.00
1890.00
1893.00
1899.00
1901.00
1907.00
1914.00
1922.00
1919.00
1923.00
1921.00
1927.00
1920.00
1929.00
1925.00
1925.00
1923.00
1933.00
1931.00
1931.00
1931.00
1925.00
1936.00
1926.00
1933.00
1926.00
1920.00
1919.00
1921.00
1922.00
1922.00
1926.00
1929.00
1930.00
1920.00
1927.00
1929.00
1930.00
1933.00
1930.00
1934.00
1936.00
1929.00
1936.00
1936.00
1936.00
1931.00
1930.00
1925.00
1927.00
1933.00
1929.00
1931.00
1936.00
1936.00
1936.00
1941.00
1938.00
1939.00
1942.00
1939.00
1936.00
1933.00
1935.00
1934.00
1936.00
1935.00
1925.00
1920.00
1919.00
1917.00
1913.00
1921.00
1927.00
1927.00
1932.00
1929.00
1924.00
1923.00
1922.00
1931.00
1930.00
1923.00
1930.00
1933.00
1927.00
1923.00
1927.00
1929.00
1932.00
1932.00
1931.00
1927.00
1921.00
1920.00
1917.00
1920.00
1924.00
1919.00
1910.00
1901.00
1900.00
1903.00
1901.00
1899.00
1899.00
1904.00
1905.00
1904.00
1906.00
1918.00
1918.00
1919.00
1920.00
1925.00
1930.00
1935.00
1929.00
1933.00
1926.00
1919.00
1914.00
1911.00
1911.00
1905.00
1903.00
1902.00
1898.00
1901.00
1899.00
1899.00
1901.00
1909.00
1913.00
1911.00
1914.00
1916.00
1915.00
1913.00
1918.00
1921.00
1926.00
1921.00
1925.00
1925.00
1927.00
1936.00
1935.00
1935.00
1935.00
1929.00
1924.00
1934.00
1932.00
1929.00
1929.00
1927.00
1929.00
1936.00
1935.00
1929.00
1925.00
1930.00
1920.00
1927.00
1923.00
1931.00
1936.00
1936.00
1936.00
1934.00
1935.00
1933.00
1930.00
1930.00
1927.00
1920.00
1924.00
1920.00
1920.00
1922.00
1915.00
1909.00
1905.00
1908.00
1909.00
1904.00
1910.00
1904.00
1900.00
1903.00
1907.00
1907.00
1917.00
1918.00
1914.00
1904.00
1904.00
1898.00
1903.00
1908.00
1904.00
1907.00
1905.00
1906.00
1904.00
1902.00
1901.00
1905.00
1907.00
1912.00
1911.00
1915.00
1915.00
1910.00
1907.00
1904.00
1903.00
1899.00
1901.00
1899.00
1899.00
1902.00
1905.00
1898.00
1915.00
1915.00
1910.00
1910.00
1911.00
1911.00
1915.00
1921.00
1929.00
1930.00
1932.00
1934.00
1933.00
1936.00
1936.00
1935.00
1929.00
1931.00
1936.00
1936.00
1935.00
1935.00
1936.00
1933.00
1923.00
1917.00
1913.00
1914.00
1919.00
1926.00
1927.00
1927.00
1923.00
1928.00
1921.00
1922.00
1931.00
1926.00
1925.00
1919.00
1926.00
1922.00
1929.00
1929.00
1921.00
1920.00
1923.00
1918.00
1921.00
1917.00
1923.00
1921.00
1915.00
1913.00
1910.00
1895.00
1890.00
1890.00
1882.00
1877.00
1881.00
1875.00
1872.00
1868.00
1869.00
1867.00
1867.00
1862.00
1870.00
1874.00
1886.00
1905.00
1933.00
1968.00
2000.00
2031.00
2077.00
2117.00
2156.00
2189.00
2219.00
2247.00
2269.00
2288.00
2304.00
2320.00
2322.00
2311.00
2298.00
2287.00
2262.00
2256.00
2238.00
2219.00
2197.00
2180.00
2160.00
2143.00
2129.00
2116.00
2113.00
2098.00
2094.00
2091.00
2087.00
2068.00
2063.00
2047.00
2039.00
2034.00
2027.00
2014.00
2006.00
2000.00
1991.00
1984.00
1982.00
1972.00
1969.00
1968.00
1968.00
1963.00
1967.00
1963.00
1962.00
1962.00
1953.00
1946.00
1943.00
1943.00
1935.00
1923.00
1916.00
1917.00
1922.00
1921.00
1906.00
1899.00
1888.00
1872.00
1849.00
1827.00
1812.00
1802.00
1796.00
1791.00
1792.00
1795.00
1794.00
1798.00
1805.00
1808.00
1818.00
1823.00
1826.00
1831.00
1834.00
1838.00
1840.00
1841.00
1843.00
1845.00
1854.00
1854.00
1856.00
1872.00
1876.00
1878.00
1877.00
1879.00
1886.00
1892.00
1899.00
1901.00
1903.00
1904.00
1904.00
1904.00
1904.00
1903.00
1904.00
1902.00
1909.00
1915.00
1920.00
1911.00
1894.00
1874.00
1859.00
1831.00
1814.00
1801.00
1791.00
1781.00
1777.00
1775.00
1774.00
1776.00
1776.00
1781.00
1787.00
1799.00
1806.00
1806.00
1808.00
1811.00
1821.00
1825.00
1837.00
1845.00
1855.00
1867.00
1874.00
1882.00
1886.00
1891.00
1894.00
1898.00
1901.00
1904.00
1904.00
1908.00
1922.00
1918.00
1919.00
1919.00
1919.00
1911.00
1914.00
1920.00
1922.00
1927.00
1922.00
1925.00
1924.00
1919.00
1917.00
1923.00
1925.00
1926.00
1927.00
1927.00
1923.00
1925.00
1921.00
1920.00
1921.00
1926.00
1927.00
1923.00
1930.00
1922.00
1918.00
1911.00
1924.00
1936.00
1939.00
1941.00
1941.00
1936.00
1945.00
1934.00
1950.00
1945.00
1945.00
1949.00
1940.00
1936.00
1935.00
1926.00
1924.00
1930.00
1922.00
1918.00
1920.00
1921.00
1915.00
1915.00
1909.00
1909.00
1907.00
1907.00
1911.00
1911.00
1914.00
1914.00
1918.00
1913.00
1907.00
1913.00
1907.00
1904.00
1904.00
1903.00
1899.00
1899.00
1892.00
1889.00
1892.00
1895.00
1904.00
1911.00
1915.00
1933.00
1920.00
1911.00
1909.00
1906.00
1904.00
1904.00
1905.00
1898.00
1902.00
1904.00
1907.00
1914.00
1915.00
1921.00
1919.00
1918.00
1918.00
1920.00
1920.00
1919.00
1920.00
1919.00
1922.00
1920.00
1917.00
1914.00
1918.00
1915.00
1907.00
1914.00
1922.00
1925.00
1927.00
1933.00
1931.00
1934.00
1936.00
1937.00
1937.00
1936.00
1936.00
1936.00
1936.00
1941.00
1939.00
1938.00
1941.00
1951.00
1947.00
1950.00
1954.00
1954.00
1951.00
1952.00
1952.00
1951.00
1951.00
1945.00
1938.00
1943.00
1941.00
1936.00
1936.00
1936.00
1931.00
1926.00
1927.00
1925.00
1931.00
1933.00
1933.00
1934.00
1933.00
1933.00
1935.00
1937.00
1935.00
1933.00
1929.00
1922.00
1917.00
1919.00
1919.00
1920.00
1925.00
1927.00
1919.00
1918.00
1918.00
1918.00
1919.00
1920.00
1918.00
1916.00
1915.00
1914.00
1919.00
1923.00
1924.00
1931.00
1934.00
1930.00
1931.00
1935.00
1936.00
1931.00
1922.00
1927.00
1930.00
1923.00
1922.00
1917.00
1915.00
1915.00
1919.00
1919.00
1920.00
1919.00
1911.00
1911.00
1919.00
1915.00
1921.00
1921.00
1921.00
1936.00
1934.00
1935.00
1930.00
1925.00
1921.00
1919.00
1917.00
1913.00
1905.00
1909.00
1905.00
1916.00
1911.00
1915.00
1915.00
1917.00
1920.00
1920.00
1922.00
1917.00
1917.00
1911.00
1911.00
1907.00
1904.00
1902.00
1898.00
1904.00
1905.00
1905.00
1909.00
1918.00
1919.00
1925.00
1928.00
1933.00
1939.00
1940.00
1939.00
1945.00
1942.00
1941.00
1936.00
1936.00
1937.00
1933.00
1927.00
1936.00
1936.00
1936.00
1940.00
1939.00
1945.00
1943.00
1938.00
1943.00
1946.00
1938.00
1936.00
1925.00
1918.00
1911.00
1914.00
1904.00
1907.00
1911.00
1909.00
1906.00
1904.00
1904.00
1899.00
1895.00
1898.00
1904.00
1904.00
1910.00
1905.00
1903.00
1895.00
1893.00
1895.00
1897.00
1896.00
1899.00
1901.00
1907.00
1904.00
1904.00
1903.00
1904.00
1902.00
1906.00
1910.00
1919.00
1922.00
1922.00
1920.00
1905.00
1913.00
1910.00
1915.00
1925.00
1935.00
1931.00
1921.00
1919.00
1910.00
1915.00
1907.00
1904.00
1905.00
1911.00
1914.00
1912.00
1919.00
1924.00
1926.00
1927.00
1934.00
1936.00
1931.00
1920.00
1926.00
1932.00
1933.00
1923.00
1927.00
1921.00
1920.00
1921.00
1919.00
1910.00
1914.00
1911.00
1911.00
1908.00
1909.00
1904.00
1904.00
1904.00
1901.00
1899.00
1891.00
1891.00
1895.00
1897.00
1891.00
1898.00
1899.00
1904.00
1894.00
1898.00
1903.00
1899.00
1904.00
1907.00
1913.00
1914.00
1915.00
1927.00
1929.00
1924.00
1928.00
1920.00
1919.00
1917.00
1909.00
1907.00
1907.00
1906.00
1910.00
1915.00
1920.00
1909.00
1911.00
1914.00
1916.00
1921.00
1925.00
1925.00
1923.00
1920.00
1921.00
1922.00
1925.00
1923.00
1920.00
1920.00
1917.00
1915.00
1918.00
1918.00
1918.00
1915.00
1915.00
1918.00
1922.00
1923.00
1925.00
1918.00
1917.00
1918.00
1917.00
1921.00
1925.00
1935.00
1934.00
1936.00
1935.00
1933.00
1931.00
1931.00
1927.00
1920.00
1918.00
1918.00
1911.00
1907.00
1912.00
1913.00
1915.00
1917.00
1920.00
1920.00
1923.00
1921.00
1927.00
1920.00
1918.00
1910.00
1920.00
1930.00
1935.00
1939.00
1936.00
1937.00
1938.00
1936.00
1937.00
1946.00
1950.00
1949.00
1941.00
1945.00
1948.00
1941.00
1943.00
1938.00
1938.00
1936.00
1938.00
1936.00
1933.00
1936.00
1935.00
1933.00
1934.00
1935.00
1931.00
1932.00
1923.00
1923.00
1921.00
1919.00
1918.00
1917.00
1914.00
1911.00
1914.00
1911.00
1904.00
1904.00
1898.00
1893.00
1895.00
1895.00
1891.00
1882.00
1886.00
1890.00
1886.00
1890.00
1891.00
1898.00
1898.00
1902.00
1899.00
1898.00
1901.00
1904.00
1905.00
1917.00
1917.00
1925.00
1929.00
1930.00
1922.00
1930.00
1936.00
1938.00
1941.00
1947.00
1951.00
1953.00
1950.00
1945.00
1951.00
1951.00
1951.00
1949.00
1939.00
1941.00
1936.00
1929.00
1920.00
1918.00
1922.00
1920.00
1922.00
1923.00
1927.00
1927.00
1929.00
1931.00
1936.00
1927.00
1930.00
1932.00
1930.00
1927.00
1923.00
1917.00
1911.00
1904.00
1906.00
1904.00
1911.00
1919.00
1914.00
1915.00
1917.00
1920.00
1922.00
1921.00
1921.00
1919.00
1917.00
1911.00
1916.00
1915.00
1918.00
1904.00
1898.00
1897.00
1899.00
1901.00
1902.00
1904.00
1910.00
1907.00
1908.00
1915.00
1921.00
1920.00
1920.00
1923.00
1923.00
1921.00
1920.00
1916.00
1922.00
1924.00
1922.00
1921.00
1915.00
1905.00
1905.00
1904.00
1899.00
1891.00
1904.00
1904.00
1903.00
1904.00
1905.00
1909.00
1916.00
1920.00
1923.00
1926.00
1927.00
1927.00
1934.00
1936.00
1935.00
1929.00
1930.00
1923.00
1922.00
1917.00
1921.00
1919.00
1919.00
1925.00
1931.00
1920.00
1921.00
1922.00
1919.00
1915.00
1918.00
1918.00
1926.00
1922.00
1925.00
1926.00
1936.00
1936.00
1927.00
1935.00
1936.00
1939.00
1935.00
1936.00
1936.00
1935.00
1931.00
1929.00
1921.00
1921.00
1926.00
1931.00
1928.00
1922.00
1922.00
1927.00
1930.00
1936.00
1941.00
1939.00
1939.00
1939.00
1936.00
1934.00
1934.00
1930.00
1926.00
1921.00
1915.00
1917.00
1914.00
1919.00
1922.00
1919.00
1914.00
1919.00
1904.00
1902.00
1900.00
1896.00
1895.00
1887.00
1886.00
1876.00
1882.00
1885.00
1877.00
1886.00
1890.00
1900.00
1902.00
1904.00
1906.00
1906.00
1904.00
1910.00
1912.00
1909.00
1914.00
1922.00
1922.00
1931.00
1936.00
1936.00
1936.00
1930.00
1923.00
1917.00
1915.00
1917.00
1920.00
1914.00
1914.00
1919.00
1917.00
1919.00
1915.00
1922.00
1920.00
1919.00
1926.00
1927.00
1933.00
1929.00
1923.00
1918.00
1917.00
1920.00
1921.00
1921.00
1929.00
1925.00
1919.00
1917.00
1914.00
1905.00
1904.00
1906.00
1907.00
1914.00
1917.00
1916.00
1926.00
1929.00
1931.00
1931.00
1930.00
1925.00
1922.00
1915.00
1911.00
1907.00
1915.00
1915.00
1910.00
1914.00
1907.00
1906.00
1903.00
1903.00
1899.00
1895.00
1890.00
1888.00
1885.00
1892.00
1891.00
1888.00
1889.00
1885.00
1881.00
1888.00
1902.00
1909.00
1909.00
1911.00
1908.00
1907.00
1904.00
1890.00
1892.00
1894.00
1902.00
1907.00
1911.00
1915.00
1915.00
1909.00
1903.00
1904.00
1907.00
1910.00
1913.00
1920.00
1926.00
1931.00
1927.00
1927.00
1925.00
1925.00
1933.00
1927.00
1931.00
1932.00
1935.00
1934.00
1931.00
1926.00
1931.00
1933.00
1930.00
1929.00
1925.00
1922.00
1921.00
1919.00
1919.00
1915.00
1914.00
1913.00
1910.00
1907.00
1910.00
1918.00
1916.00
1910.00
1918.00
1911.00
1910.00
1912.00
1910.00
1911.00
1906.00
1911.00
1914.00
1911.00
1904.00
1904.00
1901.00
1903.00
1902.00
1904.00
1908.00
1915.00
1919.00
1919.00
1919.00
1917.00
1915.00
1919.00
1919.00
1921.00
1917.00
1918.00
1914.00
1922.00
1919.00
1922.00
1925.00
1923.00
1927.00
1925.00
1926.00
1927.00
1933.00
1933.00
1935.00
1935.00
1930.00
1931.00
1934.00
1934.00
1930.00
1929.00
1939.00
1938.00
1936.00
1931.00
1926.00
1917.00
1910.00
1914.00
1917.00
1914.00
1914.00
1916.00
1918.00
1921.00
1924.00
1923.00
1926.00
1931.00
1930.00
1931.00
1925.00
1920.00
1920.00
1919.00
1917.00
1915.00
1910.00
1911.00
1909.00
1910.00
1904.00
1906.00
1907.00
1907.00
1908.00
1911.00
1917.00
1911.00
1917.00
1913.00
1917.00
1915.00
1915.00
1914.00
1908.00
1906.00
1905.00
1904.00
1901.00
1907.00
1910.00
1914.00
1914.00
1916.00
1920.00
1915.00
1919.00
1921.00
1919.00
1919.00
1918.00
1918.00
1911.00
1906.00
1910.00
1910.00
1910.00
1915.00
1915.00
1911.00
1919.00
1916.00
1918.00
1920.00
1918.00
1920.00
1917.00
1907.00
1904.00
1902.00
1898.00
1898.00
1901.00
1902.00
1902.00
1904.00
1904.00
1903.00
1910.00
1917.00
1921.00
1918.00
1919.00
1923.00
1917.00
1919.00
1915.00
1919.00
1919.00
1921.00
1919.00
1918.00
1917.00
1920.00
1927.00
1907.00
1917.00
1917.00
1910.00
1906.00
1915.00
1921.00
1929.00
1923.00
1920.00
1921.00
1925.00
1920.00
1922.00
1925.00
1921.00
1918.00
1910.00
1910.00
1906.00
1900.00
1901.00
1902.00
1898.00
1904.00
1906.00
1907.00
1904.00
1906.00
1915.00
1917.00
1925.00
1926.00
1929.00
1935.00
1931.00
1931.00
1932.00
1931.00
1923.00
1924.00
1927.00
1930.00
1927.00
1930.00
1937.00
1938.00
1936.00
1938.00
1936.00
1933.00
1926.00
1924.00
1926.00
1928.00
1931.00
1936.00
1930.00
1936.00
1928.00
1936.00
1932.00
1929.00
1925.00
1918.00
1914.00
1911.00
1918.00
1919.00
1919.00
1924.00
1923.00
1919.00
1917.00
1911.00
1929.00
1919.00
1915.00
1915.00
1917.00
1914.00
1921.00
1911.00
1917.00
1910.00
1918.00
1920.00
1920.00
1914.00
1909.00
1904.00
1903.00
1901.00
1904.00
1907.00
1907.00
1911.00
1911.00
1904.00
1907.00
1907.00
1908.00
1906.00
1904.00
1904.00
1905.00
1906.00
1904.00
1905.00
1907.00
1913.00
1920.00
1921.00
1925.00
1920.00
1919.00
1917.00
1915.00
1910.00
1917.00
1914.00
1913.00
1911.00
1909.00
1907.00
1906.00
1904.00
1904.00
1903.00
1906.00
1914.00
1918.00
1918.00
1914.00
1921.00
1923.00
1924.00
1925.00
1927.00
1931.00
1923.00
1921.00
1919.00
1919.00
1936.00
1922.00
1921.00
1923.00
1923.00
1929.00
1926.00
1923.00
1925.00
1929.00
1927.00
1919.00
1918.00
1920.00
1910.00
1912.00
1915.00
1911.00
1913.00
1914.00
1909.00
1914.00
1920.00
1922.00
1922.00
1922.00
1920.00
1917.00
1920.00
1922.00
1923.00
1925.00
1924.00
1921.00
1920.00
1921.00
1910.00
1904.00
1905.00
1910.00
1913.00
1920.00
1918.00
1920.00
1921.00
1911.00
1919.00
1919.00
1922.00
1921.00
1914.00
1904.00
1904.00
1904.00
1904.00
1910.00
1909.00
1911.00
1907.00
1908.00
1919.00
1920.00
1922.00
1925.00
1936.00
1931.00
1935.00
1934.00
1931.00
1932.00
1930.00
1926.00
1922.00
1914.00
1909.00
1904.00
1904.00
1906.00
1906.00
1909.00
1905.00
1899.00
1904.00
1906.00
1920.00
1915.00
1915.00
1920.00
1921.00
1926.00
1925.00
1922.00
1924.00
1919.00
1920.00
1922.00
1915.00
1915.00
1904.00
1907.00
1904.00
1903.00
1903.00
1903.00
1905.00
1910.00
1913.00
1920.00
1921.00
1919.00
1915.00
1910.00
1906.00
1904.00
1904.00
1904.00
1904.00
1914.00
1919.00
1919.00
1920.00
1931.00
1936.00
1944.00
1948.00
1952.00
1953.00
1956.00
1949.00
1942.00
1937.00
1929.00
1934.00
1922.00
1911.00
1909.00
1908.00
1904.00
1904.00
1905.00
1904.00
1902.00
1895.00
1887.00
1889.00
1888.00
1889.00
1886.00
1889.00
1894.00
1896.00
1900.00
1902.00
1903.00
1911.00
1904.00
1911.00
1914.00
1912.00
1910.00
1906.00
1910.00
1907.00
1909.00
1906.00
1906.00
1910.00
1911.00
1916.00
1914.00
1916.00
1922.00
1920.00
1918.00
1923.00
1920.00
1925.00
1925.00
1930.00
1936.00
1938.00
1938.00
1949.00
1951.00
1949.00
1939.00
1932.00
1932.00
1925.00
1925.00
1930.00
1931.00
1936.00
1933.00
1935.00
1925.00
1927.00
1923.00
1915.00
1918.00
1921.00
1925.00
1930.00
1930.00
1934.00
1938.00
1941.00
1941.00
1949.00
1943.00
1938.00
1932.00
1923.00
1917.00
1920.00
1916.00
1915.00
1909.00
1909.00
1911.00
1910.00
1904.00
1909.00
1914.00
1911.00
1915.00
1907.00
1917.00
1917.00
1918.00
1919.00
1921.00
1924.00
1919.00
1930.00
1935.00
1936.00
1937.00
1938.00
1936.00
1933.00
1931.00
1927.00
1909.00
1923.00
1927.00
1931.00
1930.00
1931.00
1920.00
1915.00
1919.00
1920.00
1919.00
1921.00
1927.00
1922.00
1919.00
1910.00
1912.00
1922.00
1925.00
1907.00
1893.00
1867.00
1843.00
1820.00
1783.00
1744.00
1699.00
1653.00
1605.00
1561.00
1513.00
1467.00
1424.00
1381.00
1334.00
1299.00
1266.00
1235.00
1206.00
1187.00
1162.00
1137.00
1105.00
1097.00
1077.00
1059.00
1061.00
1047.00
1053.00
1042.00
1046.00
1053.00
1054.00
1069.00
1073.00
1084.00
1101.00
1118.00
1150.00
1175.00
1200.00
1212.00
1234.00
1264.00
1280.00
1297.00
1327.00
1341.00
1357.00
1386.00
1398.00
1414.00
1431.00
1450.00
1462.00
1473.00
1497.00
1511.00
1520.00
1549.00
1557.00
1572.00
1583.00
1585.00
1613.00
1631.00
1639.00
1658.00
1678.00
1706.00
1726.00
1737.00
1750.00
1755.00
1767.00
1774.00
1783.00
1794.00
1808.00
1814.00
1819.00
1811.00
1810.00
1828.00
1850.00
1862.00
1869.00
1872.00
1873.00
1876.00
1875.00
1883.00
1885.00
1885.00
1889.00
1888.00
1878.00
1890.00
1898.00
1896.00
1909.00
1914.00
1920.00
1922.00
1931.00
1931.00
1921.00
1911.00
1907.00
1913.00
1914.00
1916.00
1913.00
1908.00
1904.00
1904.00
1889.00
1903.00
1900.00
1907.00
1909.00
1913.00
1910.00
1905.00
1919.00
1927.00
1931.00
1936.00
1930.00
1933.00
1927.00
1926.00
1923.00
1909.00
1905.00
1904.00
1903.00
1899.00
1902.00
1904.00
1909.00
1920.00
1927.00
1920.00
1926.00
1919.00
1924.00
1924.00
1925.00
1934.00
1933.00
1931.00
1931.00
1930.00
1933.00
1930.00
1936.00
1938.00
1941.00
1935.00
1936.00
1938.00
1931.00
1927.00
1929.00
1929.00
1936.00
1946.00
1946.00
1935.00
1939.00
1930.00
1931.00
1930.00
1934.00
1933.00
1931.00
1931.00
1931.00
1931.00
1927.00
1931.00
1943.00
1929.00
1923.00
1932.00
1927.00
1929.00
1925.00
1936.00
1936.00
1936.00
1938.00
1934.00
1931.00
1936.00
1929.00
1915.00
1926.00
1930.00
1929.00
1930.00
1931.00
1931.00
1933.00
1935.00
1931.00
1927.00
1921.00
1926.00
1925.00
1928.00
1923.00
1923.00
1929.00
1925.00
1930.00
1933.00
1934.00
1927.00
1918.00
1922.00
1918.00
1914.00
1915.00
1914.00
1921.00
1921.00
1921.00
1916.00
1913.00
1909.00
1923.00
1919.00
1925.00
1927.00
1927.00
1925.00
1933.00
1929.00
1936.00
1931.00
1935.00
1936.00
1929.00
1929.00
1931.00
1923.00
1926.00
1926.00
1933.00
1936.00
1923.00
1921.00
1921.00
1919.00
1918.00
1914.00
1909.00
1911.00
1909.00
1907.00
1909.00
1910.00
1909.00
1897.00
1903.00
1889.00
1872.00
1872.00
1906.00
1939.00
1979.00
2017.00
2069.00
2128.00
2185.00
2239.00
2300.00
2352.00
2393.00
2448.00
2499.00
2544.00
2603.00
2645.00
2689.00
2736.00
2781.00
2823.00
2855.00
2895.00
2924.00
2965.00
3001.00
3021.00
3056.00
3084.00
3104.00
3135.00
3152.00
3157.00
3182.00
3198.00
3214.00
3216.00
3225.00
3235.00
3238.00
3234.00
3230.00
3217.00
3210.00
3205.00
3190.00
3183.00
3181.00
3184.00
3159.00
3141.00
3138.00
3120.00
3109.00
3058.00
3056.00
3056.00
3052.00
3013.00
3006.00
2983.00
2960.00
2936.00
2915.00
2887.00
2839.00
2826.00
2801.00
2768.00
2758.00
2749.00
2698.00
2686.00
2672.00
2649.00
2624.00
2602.00
2539.00
2549.00
2541.00
2503.00
2480.00
2482.00
2448.00
2407.00
2359.00
2359.00
2379.00
2369.00
2359.00
2352.00
2343.00
2327.00
2288.00
2239.00
2257.00
2245.00
2218.00
2193.00
2162.00
2149.00
2143.00
2141.00
2113.00
2121.00
2099.00
2099.00
2089.00
2065.00
2055.00
2006.00
1999.00
1993.00
1975.00
1975.00
1966.00
1916.00
1958.00
1968.00
1959.00
1955.00
1943.00
1934.00
1903.00
1918.00
1909.00
1910.00
1886.00
1875.00
1877.00
1895.00
1907.00
1920.00
1917.00
1936.00
1911.00
1919.00
1919.00
1882.00
1885.00
1915.00
1935.00
1936.00
1952.00
1958.00
1953.00
2025.00
2037.00
2054.00
2070.00
2044.00
2073.00
1987.00
2083.00
2123.00
2138.00
2140.00
2141.00
2111.00
2112.00
2128.00
2147.00
2140.00
2108.00
2127.00
2112.00
2099.00
2046.00
2035.00
2074.00
2067.00
2060.00
2057.00
2032.00
2002.00
1983.00
2005.00
2006.00
1996.00
2000.00
1999.00
1985.00
1988.00
1973.00
1930.00
1952.00
1914.00
1954.00
1951.00
1968.00
1987.00
1981.00
1963.00
1981.00
1974.00
1978.00
1978.00
1983.00
1954.00
1942.00
1907.00
1942.00
1951.00
1917.00
1936.00
1934.00
1938.00
1921.00
1945.00
1937.00
1921.00
1930.00
1948.00
1941.00
1940.00
1926.00
1923.00
1930.00
1910.00
1898.00
1909.00
1917.00
1872.00
1897.00
1915.00
1915.00
1905.00
1903.00
1900.00
1922.00
1927.00
1919.00
1919.00
1936.00
1936.00
1931.00
1957.00
1963.00
1936.00
1946.00
1947.00
1951.00
1927.00
1946.00
1955.00
1958.00
1949.00
1957.00
1961.00
1970.00
1968.00
1955.00
1937.00
1944.00
1919.00
1936.00
1936.00
1934.00
1881.00
1903.00
1935.00
1957.00
1959.00
1945.00
1948.00
1945.00
1945.00
1945.00
1936.00
1933.00
1922.00
1927.00
1932.00
1931.00
1925.00
1923.00
1913.00
1926.00
1922.00
1935.00
1913.00
1903.00
1931.00
1937.00
1955.00
1963.00
1955.00
1951.00
1920.00
1916.00
1895.00
1877.00
1853.00
1840.00
1827.00
1824.00
1802.00
1819.00
1829.00
1831.00
1825.00
1831.00
1831.00
1833.00
1839.00
1843.00
1853.00
1850.00
1849.00
1856.00
1853.00
1853.00
1865.00
1850.00
1858.00
1836.00
1833.00
1869.00
1874.00
1874.00
1893.00
1903.00
1907.00
1897.00
1916.00
1922.00
1919.00
1921.00
1914.00
1929.00
1927.00
1935.00
1921.00
1917.00
1904.00
1901.00
1883.00
1887.00
1890.00
1895.00
1890.00
1886.00
1885.00
1883.00
1879.00
1883.00
1878.00
1885.00
1895.00
1904.00
1906.00
1908.00
1910.00
1890.00
1919.00
1936.00
1930.00
1947.00
1948.00
1936.00
1935.00
1935.00
1915.00
1937.00
1926.00
1941.00
1945.00
1942.00
1939.00
1933.00
1905.00
1936.00
1938.00
1919.00
1915.00
1899.00
1914.00
1920.00
1919.00
1917.00
1910.00
1902.00
1893.00
1899.00
1899.00
1893.00
1867.00
1874.00
1878.00
1883.00
1891.00
1893.00
1888.00
1888.00
1914.00
1922.00
1922.00
1925.00
1917.00
1908.00
1888.00
1918.00
1921.00
1911.00
1905.00
1915.00
1941.00
1957.00
1939.00
1906.00
1870.00
1839.00
1775.00
1705.00
1645.00
1587.00
1523.00
1456.00
1389.00
1309.00
1246.00
1182.00
1115.00
1055.00
981.00
915.00
853.00
797.00
747.00
706.00
673.00
640.00
622.00
573.00
551.00
509.00
505.00
496.00
496.00
490.00
478.00
466.00
458.00
473.00
482.00
496.00
498.00
523.00
547.00
560.00
572.00
579.00
615.00
627.00
650.00
669.00
688.00
707.00
749.00
784.00
815.00
829.00
851.00
880.00
923.00
935.00
965.00
975.00
1006.00
1039.00
1058.00
1072.00
1098.00
1125.00
1138.00
1168.00
1181.00
1199.00
1229.00
1269.00
1266.00
1283.00
1306.00
1338.00
1351.00
1378.00
1418.00
1421.00
1442.00
1463.00
1488.00
1507.00
1550.00
1570.00
1585.00
1611.00
1622.00
1648.00
1654.00
1674.00
1693.00
1712.00
1728.00
1771.00
1783.00
1776.00
1773.00
1766.00
1776.00
1778.00
1799.00
1810.00
1818.00
1827.00
1825.00
1827.00
1829.00
1840.00
1895.00
1865.00
1866.00
1863.00
1880.00
1867.00
1869.00
1867.00
1855.00
1846.00
1860.00
1872.00
1872.00
1866.00
1902.00
1890.00
1897.00
1885.00
1888.00
1899.00
1886.00
1887.00
1873.00
1873.00
1883.00
1889.00
1886.00
1886.00
1891.00
1890.00
1893.00
1890.00
1903.00
1885.00
1879.00
1872.00
1872.00
1877.00
1885.00
1901.00
1894.00
1904.00
1891.00
1882.00
1883.00
1883.00
1895.00
1897.00
1891.00
1881.00
1891.00
1895.00
1887.00
1888.00
1889.00
1889.00
1894.00
1899.00
1903.00
1904.00
1909.00
1904.00
1905.00
1904.00
1904.00
1908.00
1914.00
1915.00
1920.00
1931.00
1938.00
1938.00
1936.00
1943.00
1934.00
1930.00
1931.00
1925.00
1925.00
1937.00
1918.00
1905.00
1908.00
1914.00
1907.00
1917.00
1913.00
1916.00
1911.00
1917.00
1910.00
1907.00
1907.00
1906.00
1905.00
1904.00
1904.00
1902.00
1901.00
1895.00
1895.00
1885.00
1895.00
1898.00
1889.00
1890.00
1898.00
1917.00
1910.00
1907.00
1907.00
1913.00
1914.00
1912.00
1919.00
1910.00
1911.00
1905.00
1903.00
1890.00
1893.00
1903.00
1902.00
1907.00
1911.00
1915.00
1915.00
1917.00
1916.00
1920.00
1923.00
1930.00
1926.00
1923.00
1920.00
1919.00
1922.00
1930.00
1938.00
1936.00
1945.00
1945.00
1951.00
1946.00
1952.00
1963.00
1949.00
1937.00
1934.00
1921.00
1917.00
1925.00
1920.00
1911.00
1919.00
1935.00
1911.00
1902.00
1902.00
1901.00
1898.00
1901.00
1918.00
1901.00
1899.00
1893.00
1901.00
1899.00
1913.00
1920.00
1930.00
1915.00
1921.00
1920.00
1924.00
1918.00
1913.00
1913.00
1913.00
1920.00
1911.00
1917.00
1919.00
1935.00
1927.00
1929.00
1920.00
1913.00
1907.00
1922.00
1930.00
1921.00
1923.00
1934.00
1936.00
1934.00
1933.00
1931.00
1932.00
1922.00
1915.00
1921.00
1920.00
1921.00
1925.00
1938.00
1921.00
1927.00
1926.00
1926.00
1914.00
1902.00
1906.00
1936.00
1958.00
1989.00
2032.00
2069.00
2109.00
2148.00
2193.00
2236.00
2247.00
2256.00
2265.00
2281.00
2288.00
2274.00
2265.00
2253.00
2238.00
2231.00
2224.00
2229.00
2203.00
2191.00
2177.00
2170.00
2154.00
2149.00
2128.00
2118.00
2104.00
2102.00
2107.00
2086.00
2075.00
2064.00
2046.00
2039.00
2032.00
2020.00
2015.00
2006.00
2003.00
2003.00
2000.00
2001.00
2000.00
1991.00
1991.00
1975.00
1969.00
1951.00
1949.00
1940.00
1932.00
1921.00
1915.00
1911.00
1919.00
1917.00
1918.00
1909.00
1925.00
1933.00
1936.00
1941.00
1947.00
1951.00
1951.00
1953.00
1946.00
1952.00
1954.00
1956.00
1952.00
1934.00
1938.00
1941.00
1940.00
1943.00
1942.00
1922.00
1906.00
1907.00
1943.00
1970.00
2000.00
2036.00
2086.00
2141.00
2197.00
2260.00
2331.00
2406.00
2451.00
2525.00
2611.00
2683.00
2741.00
2803.00
2855.00
2911.00
2960.00
3003.00
3041.00
3065.00
3071.00
3137.00
3169.00
3187.00
3202.00
3189.00
3205.00
3202.00
3170.00
3136.00
3177.00
3195.00
3215.00
3160.00
3138.00
3146.00
3161.00
3149.00
3114.00
3091.00
3067.00
3013.00
3005.00
2973.00
2963.00
2955.00
2927.00
2891.00
2861.00
2847.00
2813.00
2791.00
2757.00
2723.00
2704.00
2672.00
2631.00
2608.00
2583.00
2553.00
2522.00
2490.00
2480.00
2461.00
2419.00
2418.00
2401.00
2373.00
2349.00
2320.00
2301.00
2279.00
2239.00
2224.00
2198.00
2194.00
2181.00
2159.00
2133.00
2125.00
2110.00
2096.00
2079.00
2058.00
2064.00
2064.00
2057.00
2055.00
2032.00
2031.00
2023.00
2017.00
2003.00
1996.00
1990.00
1990.00
1968.00
1971.00
1968.00
1973.00
1968.00
1971.00
1975.00
1968.00
1968.00
1961.00
1943.00
1954.00
1954.00
1966.00
1951.00
1941.00
1939.00
1936.00
1929.00
1917.00
1931.00
1937.00
1936.00
1940.00
1936.00
1934.00
1936.00
1936.00
1942.00
1936.00
1941.00
1930.00
1938.00
1950.00
1938.00
1936.00
1935.00
1941.00
1965.00
1965.00
1945.00
1961.00
1968.00
1969.00
1968.00
1957.00
1963.00
1959.00
1956.00
1949.00
1956.00
1915.00
1941.00
1943.00
1942.00
1941.00
1930.00
1936.00
1937.00
1939.00
1949.00
1955.00
1930.00
1939.00
1926.00
1937.00
1939.00
1936.00
1927.00
1939.00
1949.00
1966.00
1968.00
1968.00
1968.00
1968.00
1965.00
1945.00
1938.00
1943.00
1962.00
1963.00
1956.00
1943.00
1936.00
1932.00
1935.00
1927.00
1925.00
1925.00
1936.00
1936.00
1915.00
1925.00
1926.00
1934.00
1922.00
1902.00
1910.00
1919.00
1920.00
1923.00
1926.00
1923.00
1927.00
1936.00
1922.00
1914.00
1917.00
1914.00
1915.00
1888.00
1892.00
1909.00
1919.00
1905.00
1910.00
1914.00
1927.00
1918.00
1902.00
1910.00
1929.00
1938.00
1941.00
1941.00
1953.00
1954.00
1936.00
1924.00
1938.00
1940.00
1932.00
1922.00
1903.00
1904.00
1905.00
1898.00
1901.00
1905.00
1887.00
1898.00
1897.00
1883.00
1895.00
1899.00
1899.00
1895.00
1904.00
1909.00
1905.00
1926.00
1919.00
1955.00
1979.00
1988.00
2013.00
2013.00
2032.00
2054.00
2055.00
2063.00
2078.00
2077.00
2069.00
2075.00
2078.00
2068.00
2043.00
2017.00
2041.00
2042.00
2022.00
2026.00
2015.00
2005.00
2006.00
1995.00
1987.00
1981.00
1973.00
1973.00
1968.00
1967.00
1959.00
1963.00
1969.00
1968.00
1968.00
1967.00
1958.00
1975.00
1984.00
1990.00
1973.00
1969.00
1971.00
1938.00
1965.00
1959.00
1946.00
1942.00
1956.00
1949.00
1966.00
1942.00
1946.00
1937.00
1943.00
1940.00
1930.00
1910.00
1927.00
1909.00
1944.00
1946.00
1940.00
1937.00
1936.00
1909.00
1924.00
1946.00
1936.00
1935.00
1937.00
1936.00
1934.00
1946.00
1921.00
1930.00
1910.00
1921.00
1934.00
1942.00
1936.00
1947.00
1950.00
1941.00
1911.00
1929.00
1920.00
1925.00
1933.00
1924.00
1910.00
1930.00
1919.00
1907.00
1904.00
1914.00
1904.00
1927.00
1921.00
1921.00
1905.00
1894.00
1904.00
1919.00
1923.00
1919.00
1921.00
1921.00
1919.00
1895.00
1905.00
1909.00
1908.00
1916.00
1891.00
1909.00
1915.00
1930.00
1925.00
1944.00
1933.00
1947.00
1930.00
1937.00
1923.00
1940.00
1979.00
1968.00
1933.00
1904.00
1865.00
1793.00
1777.00
1722.00
1675.00
1605.00
1559.00
1517.00
1456.00
1392.00
1329.00
1280.00
1202.00
1141.00
1078.00
1023.00
971.00
914.00
889.00
837.00
800.00
755.00
719.00
692.00
647.00
624.00
613.00
585.00
560.00
563.00
551.00
564.00
565.00
565.00
567.00
577.00
587.00
580.00
607.00
628.00
657.00
673.00
688.00
711.00
735.00
768.00
788.00
814.00
837.00
854.00
870.00
887.00
909.00
915.00
935.00
931.00
975.00
979.00
998.00
1038.00
1069.00
1088.00
1119.00
1136.00
1168.00
1187.00
1210.00
1228.00
1246.00
1261.00
1274.00
1290.00
1311.00
1330.00
1346.00
1359.00
1391.00
1407.00
1434.00
1443.00
1447.00
1459.00
1474.00
1488.00
1510.00
1527.00
1534.00
1566.00
1584.00
1597.00
1626.00
1648.00
1676.00
1690.00
1701.00
1714.00
1723.00
1744.00
1770.00
1765.00
1767.00
1769.00
1790.00
1802.00
1811.00
1835.00
1840.00
1853.00
1859.00
1875.00
1893.00
1910.00
1909.00
1901.00
1899.00
1888.00
1889.00
1890.00
1896.00
1887.00
1894.00
1891.00
1893.00
1895.00
1865.00
1891.00
1889.00
1880.00
1877.00
1872.00
1874.00
1879.00
1890.00
1872.00
1877.00
1894.00
1904.00
1908.00
1910.00
1908.00
1911.00
1913.00
1920.00
1923.00
1924.00
1946.00
1946.00
1936.00
1934.00
1927.00
1914.00
1916.00
1918.00
1943.00
1933.00
1914.00
1906.00
1905.00
1905.00
1914.00
1909.00
1902.00
1885.00
1883.00
1894.00
1898.00
1899.00
1905.00
1905.00
1900.00
1879.00
1863.00
1879.00
1918.00
1967.00
2018.00
2066.00
2115.00
2169.00
2208.00
2261.00
2311.00
2357.00
2422.00
2458.00
2497.00
2495.00
2509.00
2508.00
2505.00
2512.00
2507.00
2489.00
2467.00
2449.00
2429.00
2411.00
2387.00
2367.00
2348.00
2321.00
2293.00
2271.00
2248.00
2233.00
2219.00
2207.00
2193.00
2176.00
2158.00
2144.00
2128.00
2115.00
2094.00
2082.00
2066.00
2060.00
2036.00
2029.00
2021.00
2016.00
2009.00
1997.00
1987.00
1979.00
1969.00
1966.00
1967.00
1965.00
1966.00
1965.00
1959.00
1962.00
1981.00
1973.00
1965.00
1962.00
1953.00
1954.00
1946.00
1945.00
1941.00
1941.00
1936.00
1932.00
1923.00
1918.00
1904.00
1922.00
1942.00
1942.00
1938.00
1936.00
1930.00
1929.00
1926.00
1921.00
1915.00
1913.00
1897.00
1898.00
1926.00
1939.00
1967.00
2000.00
2036.00
2099.00
2148.00
2190.00
2243.00
2301.00
2338.00
2372.00
2383.00
2393.00
2399.00
2393.00
2393.00
2393.00
2384.00
2385.00
2370.00
2357.00
2335.00
2314.00
2298.00
2281.00
2253.00
2224.00
2209.00
2192.00
2167.00
2144.00
2129.00
2113.00
2105.00
2089.00
2071.00
2061.00
2027.00
1995.00
1986.00
1988.00
1988.00
1991.00
1998.00
2000.00
2000.00
1995.00
1994.00
2000.00
2000.00
2010.00
2023.00
2038.00
2071.00
2096.00
2124.00
2153.00
2179.00
2203.00
2210.00
2224.00
2247.00
2273.00
2296.00
2324.00
2357.00
2375.00
2385.00
2391.00
2395.00
2383.00
2375.00
2363.00
2337.00
2314.00
2288.00
2257.00
2235.00
2207.00
2180.00
2154.00
2121.00
2091.00
2065.00
2042.00
2034.00
2031.00
2019.00
2006.00
1995.00
1987.00
1983.00
1978.00
1973.00
1965.00
1954.00
1949.00
1938.00
1937.00
1936.00
1918.00
1936.00
1927.00
1931.00
1923.00
1917.00
1909.00
1917.00
1923.00
1930.00
1933.00
1936.00
1935.00
1932.00
1931.00
1927.00
1917.00
1911.00
1914.00
1908.00
1904.00
1902.00
1901.00
1899.00
1903.00
1905.00
1914.00
1920.00
1930.00
1936.00
1942.00
1948.00
1939.00
1930.00
1929.00
1927.00
1929.00
1929.00
1930.00
1930.00
1925.00
1926.00
1927.00
1921.00
1934.00
1936.00
1931.00
1930.00
1926.00
1923.00
1929.00
1936.00
1936.00
1932.00
1925.00
1923.00
1920.00
1918.00
1906.00
1908.00
1921.00
1942.00
1982.00
2026.00
2078.00
2119.00
2160.00
2203.00
2242.00
2285.00
2313.00
2330.00
2341.00
2352.00
2344.00
2341.00
2325.00
2320.00
2305.00
2287.00
2278.00
2259.00
2239.00
2224.00
2208.00
2194.00
2173.00
2157.00
2135.00
2122.00
2112.00
2091.00
2076.00
2062.00
2035.00
2035.00
2063.00
2069.00
2079.00
2096.00
2112.00
2160.00
2197.00
2239.00
2295.00
2345.00
2387.00
2416.00
2445.00
2479.00
2514.00
2555.00
2610.00
2640.00
2665.00
2683.00
2701.00
2693.00
2698.00
2701.00
2686.00
2683.00
2667.00
2672.00
2672.00
2661.00
2657.00
2636.00
2603.00
2570.00
2551.00
2541.00
2517.00
2511.00
2491.00
2469.00
2447.00
2425.00
2414.00
2387.00
2367.00
2325.00
2293.00
2300.00
2291.00
2279.00
2263.00
2246.00
2210.00
2192.00
2175.00
2166.00
2143.00
2139.00
2126.00
2118.00
2108.00
2099.00
2087.00
2076.00
2071.00
2064.00
2047.00
2034.00
2028.00
2013.00
2002.00
1974.00
1977.00
1965.00
1950.00
1917.00
1916.00
1909.00
1910.00
1919.00
1918.00
1924.00
1921.00
1921.00
1914.00
1922.00
1920.00
1919.00
1926.00
1935.00
1945.00
1914.00
1878.00
1847.00
1810.00
1751.00
1683.00
1617.00
1557.00
1485.00
1420.00
1351.00
1290.00
1225.00
1168.00
1131.00
1112.00
1100.00
1099.00
1105.00
1118.00
1136.00
1156.00
1186.00
1214.00
1246.00
1281.00
1317.00
1349.00
1381.00
1413.00
1438.00
1459.00
1491.00
1520.00
1552.00
1577.00
1595.00
1617.00
1648.00
1672.00
1691.00
1707.00
1723.00
1731.00
1740.00
1747.00
1761.00
1774.00
1778.00
1791.00
1799.00
1815.00
1831.00
1841.00
1862.00
1872.00
1882.00
1895.00
1906.00
1920.00
1925.00
1890.00
1869.00
1837.00
1799.00
1755.00
1707.00
1645.00
1586.00
1524.00
1471.00
1423.00
1372.00
1330.00
1307.00
1285.00
1295.00
1296.00
1315.00
1328.00
1345.00
1370.00
1385.00
1406.00
1423.00
1447.00
1472.00
1498.00
1521.00
1549.00
1570.00
1594.00
1616.00
1631.00
1646.00
1664.00
1681.00
1695.00
1707.00
1717.00
1734.00
1755.00
1763.00
1776.00
1792.00
1805.00
1824.00
1830.00
1835.00
1840.00
1839.00
1840.00
1846.00
1849.00
1853.00
1861.00
1863.00
1872.00
1876.00
1873.00
1881.00
1878.00
1879.00
1882.00
1887.00
1887.00
1893.00
1900.00
1902.00
1911.00
1919.00
1919.00
1919.00
1918.00
1919.00
1919.00
1915.00
1915.00
1933.00
1925.00
1894.00
1859.00
1835.00
1808.00
1770.00
1727.00
1683.00
1638.00
1591.00
1545.00
1492.00
1441.00
1392.00
1345.00
1296.00
1253.00
1215.00
1171.00
1147.00
1125.00
1104.00
1074.00
1071.00
1047.00
1058.00
1058.00
1070.00
1085.00
1094.00
1120.00
1149.00
1179.00
1207.00
1242.00
1278.00
1316.00
1349.00
1380.00
1419.00
1447.00
1487.00
1506.00
1534.00
1563.00
1584.00
1614.00
1622.00
1626.00
1632.00
1633.00
1623.00
1613.00
1600.00
1588.00
1577.00
1564.00
1554.00
1535.00
1532.00
1526.00
1523.00
1531.00
1535.00
1552.00
1555.00
1561.00
1573.00
1587.00
1599.00
1595.00
1610.00
1613.00
1616.00
1622.00
1645.00
1673.00
1684.00
1705.00
1744.00
1763.00
1791.00
1808.00
1837.00
1845.00
1870.00
1881.00
1895.00
1899.00
1904.00
1915.00
1923.00
1934.00
1937.00
1941.00
1942.00
1943.00
1936.00
1954.00
1947.00
1949.00
1954.00
1961.00
1958.00
1952.00
1946.00
1946.00
1947.00
1946.00
1943.00
1941.00
1947.00
1943.00
1937.00
1936.00
1935.00
1935.00
1934.00
1933.00
1934.00
1937.00
1936.00
1931.00
1924.00
1919.00
1920.00
1927.00
1914.00
1912.00
1909.00
1907.00
1904.00
1905.00
1909.00
1911.00
1915.00
1915.00
1914.00
1914.00
1902.00
1889.00
1901.00
1941.00
1963.00
1998.00
2031.00
2065.00
2097.00
2112.00
2128.00
2128.00
2130.00
2135.00
2132.00
2128.00
2129.00
2126.00
2125.00
2118.00
2112.00
2105.00
2096.00
2087.00
2077.00
2065.00
2052.00
2043.00
2046.00
2047.00
2045.00
2034.00
2029.00
2030.00
2021.00
2025.00
2029.00
2026.00
2027.00
2016.00
2007.00
1998.00
1995.00
1990.00
1985.00
1983.00
1982.00
1974.00
1970.00
1967.00
1963.00
1963.00
1959.00
1962.00
1962.00
1953.00
1949.00
1943.00
1936.00
1933.00
1931.00
1925.00
1919.00
1917.00
1916.00
1917.00
1916.00
1914.00
1914.00
1920.00
1918.00
1923.00
1933.00
1936.00
1926.00
1919.00
1904.00
1882.00
1859.00
1835.00
1808.00
1779.00
1759.00
1744.00
1744.00
1738.00
1736.00
1731.00
1731.00
1738.00
1744.00
1757.00
1763.00
1775.00
1777.00
1782.00
1787.00
1799.00
1808.00
1821.00
1828.00
1837.00
1842.00
1851.00
1851.00
1855.00
1860.00
1861.00
1868.00
1868.00
1869.00
1872.00
1873.00
1899.00
1881.00
1890.00
1891.00
1893.00
1901.00
1894.00
1904.00
1917.00
1918.00
1919.00
1906.00
1892.00
1878.00
1863.00
1851.00
1843.00
1826.00
1809.00
1791.00
1783.00
1776.00
1774.00
1777.00
1776.00
1775.00
1775.00
1777.00
1791.00
1797.00
1802.00
1815.00
1829.00
1833.00
1840.00
1840.00
1845.00
1855.00
1842.00
1856.00
1872.00
1871.00
1875.00
1879.00
1888.00
1883.00
1895.00
1904.00
1897.00
1904.00
1907.00
1911.00
1904.00
1903.00
1904.00
1910.00
1920.00
1925.00
1934.00
1934.00
1936.00
1915.00
1903.00
1869.00
1854.00
1838.00
1792.00
1770.00
1747.00
1712.00
1699.00
1670.00
1663.00
1648.00
1646.00
1641.00
1647.00
1649.00
1663.00
1663.00
1664.00
1682.00
1683.00
1689.00
1695.00
1713.00
1727.00
1744.00
1757.00
1771.00
1776.00
1776.00
1785.00
1804.00
1821.00
1808.00
1841.00
1840.00
1840.00
1849.00
1856.00
1865.00
1859.00
1855.00
1872.00
1879.00
1882.00
1881.00
1898.00
1891.00
1883.00
1886.00
1878.00
1887.00
1903.00
1903.00
1891.00
1886.00
1876.00
1884.00
1886.00
1906.00
1904.00
1922.00
1920.00
1913.00
1917.00
1916.00
1923.00
1924.00
1924.00
1922.00
1926.00
1934.00
1938.00
1942.00
1944.00
1946.00
1945.00
1957.00
1961.00
1952.00
1949.00
1927.00
1898.00
1879.00
1858.00
1840.00
1841.00
1823.00
1798.00
1799.00
1776.00
1775.00
1762.00
1747.00
1744.00
1738.00
1738.00
1744.00
1749.00
1754.00
1759.00
1756.00
1769.00
1775.00
1775.00
1785.00
1799.00
1815.00
1818.00
1825.00
1830.00
1839.00
1840.00
1840.00
1851.00
1855.00
1857.00
1866.00
1879.00
1883.00
1887.00
1891.00
1897.00
1890.00
1904.00
1906.00
1905.00
1907.00
1917.00
1923.00
1921.00
1921.00
1921.00
1921.00
1919.00
1922.00
1935.00
1933.00
1943.00
1931.00
1933.00
1923.00
1924.00
1918.00
1919.00
1919.00
1930.00
1936.00
1936.00
1934.00
1934.00
1934.00
1940.00
1943.00
1950.00
1943.00
1925.00
1904.00
1904.00
1943.00
1971.00
2010.00
2061.00
2107.00
2160.00
2225.00
2290.00
2365.00
2448.00
2517.00
2592.00
2669.00
2735.00
2799.00
2851.00
2907.00
2966.00
3017.00
3056.00
3098.00
3133.00
3165.00
3184.00
3198.00
3203.00
3198.00
3186.00
3157.00
3130.00
3088.00
3035.00
2985.00
2942.00
2896.00
2848.00
2800.00
2749.00
2709.00
2656.00
2609.00
2571.00
2529.00
2487.00
2448.00
2406.00
2368.00
2339.00
2309.00
2274.00
2243.00
2220.00
2194.00
2166.00
2155.00
2141.00
2135.00
2117.00
2096.00
2086.00
2070.00
2061.00
2045.00
2029.00
2015.00
2001.00
1997.00
1995.00
1999.00
1996.00
1993.00
1984.00
1973.00
1982.00
1981.00
1968.00
1963.00
1962.00
1959.00
1956.00
1953.00
1953.00
1950.00
1950.00
1955.00
1960.00
1962.00
1968.00
1969.00
1967.00
1957.00
1966.00
1969.00
1970.00
1974.00
1972.00
1983.00
1985.00
1989.00
2000.00
2009.00
2004.00
2004.00
2001.00
1990.00
1987.00
1990.00
1974.00
1967.00
1959.00
1966.00
1936.00
1935.00
1929.00
1926.00
1925.00
1935.00
1936.00
1938.00
1936.00
1936.00
1925.00
1931.00
1936.00
1917.00
1908.00
1915.00
1932.00
1936.00
1939.00
1935.00
1967.00
1977.00
1999.00
2028.00
2035.00
2033.00
2037.00
2051.00
2081.00
2097.00
2091.00
2093.00
2096.00
2103.00
2112.00
2123.00
2130.00
2128.00
2133.00
2126.00
2125.00
2115.00
2103.00
2098.00
2095.00
2079.00
2065.00
2058.00
2039.00
2030.00
2011.00
1993.00
1974.00
1949.00
1921.00
1902.00
1877.00
1865.00
1853.00
1840.00
1830.00
1819.00
1811.00
1802.00
1801.00
1807.00
1805.00
1804.00
1808.00
1808.00
1811.00
1809.00
1815.00
1826.00
1840.00
1854.00
1861.00
1866.00
1867.00
1863.00
1863.00
1867.00
1866.00
1866.00
1866.00
1870.00
1863.00
1868.00
1865.00
1871.00
1876.00
1882.00
1886.00
1879.00
1881.00
1887.00
1877.00
1877.00
1875.00
1879.00
1885.00
1895.00
1903.00
1904.00
1904.00
1904.00
1904.00
1910.00
1914.00
1911.00
1915.00
1918.00
1919.00
1914.00
1904.00
1895.00
1901.00
1897.00
1904.00
1907.00
1919.00
1925.00
1925.00
1930.00
1928.00
1922.00
1911.00
1904.00
1934.00
1951.00
1979.00
2014.00
2064.00
2108.00
2147.00
2191.00
2229.00
2277.00
2323.00
2365.00
2397.00
2448.00
2480.00
2512.00
2535.00
2559.00
2594.00
2614.00
2613.00
2640.00
2647.00
2663.00
2691.00
2704.00
2690.00
2695.00
2700.00
2683.00
2663.00
2656.00
2647.00
2655.00
2635.00
2587.00
2608.00
2590.00
2579.00
2576.00
2559.00
2542.00
2527.00
2508.00
2491.00
2473.00
2449.00
2427.00
2408.00
2397.00
2371.00
2346.00
2309.00
2281.00
2269.00
2245.00
2233.00
2218.00
2198.00
2192.00
2167.00
2146.00
2128.00
2109.00
2090.00
2078.00
2067.00
2064.00
2053.00
2038.00
2032.00
2032.00
2024.00
2015.00
2001.00
1991.00
1984.00
1974.00
1968.00
1968.00
1967.00
1969.00
1963.00
1962.00
1951.00
1945.00
1937.00
1935.00
1931.00
1936.00
1936.00
1936.00
1936.00
1933.00
1929.00
1929.00
1923.00
1929.00
1926.00
1930.00
1927.00
1936.00
1938.00
1946.00
1946.00
1943.00
1939.00
1937.00
1940.00
1934.00
1942.00
1967.00
1952.00
1907.00
1875.00
1840.00
1776.00
1712.00
1642.00
1584.00
1525.00
1488.00
1458.00
1438.00
1430.00
1419.00
1415.00
1424.00
1440.00
1456.00
1469.00
1489.00
1506.00
1521.00
1552.00
1576.00
1597.00
1616.00
1639.00
1663.00
1680.00
1691.00
1706.00
1726.00
1742.00
1761.00
1773.00
1788.00
1805.00
1810.00
1821.00
1827.00
1834.00
1840.00
1840.00
1850.00
1847.00
1847.00
1853.00
1860.00
1866.00
1871.00
1873.00
1875.00
1876.00
1873.00
1877.00
1883.00
1888.00
1887.00
1886.00
1891.00
1894.00
1893.00
1902.00
1907.00
1920.00
1931.00
1951.00
1957.00
1934.00
1904.00
1872.00
1834.00
1787.00
1741.00
1683.00
1623.00
1575.00
1515.00
1472.00
1427.00
1391.00
1376.00
1362.00
1360.00
1360.00
1365.00
1382.00
1392.00
1407.00
1408.00
1431.00
1443.00
1462.00
1492.00
1525.00
1550.00
1564.00
1596.00
1617.00
1648.00
1667.00
1687.00
1714.00
1734.00
1747.00
1760.00
1763.00
1777.00
1785.00
1793.00
1801.00
1808.00
1814.00
1834.00
1840.00
1840.00
1844.00
1851.00
1851.00
1857.00
1866.00
1869.00
1867.00
1871.00
1872.00
1872.00
1872.00
1870.00
1872.00
1867.00
1871.00
1875.00
1874.00
1873.00
1877.00
1875.00
1877.00
1868.00
1874.00
1904.00
1935.00
1967.00
2002.00
2043.00
2097.00
2145.00
2201.00
2243.00
2300.00
2347.00
2395.00
2426.00
2469.00
2507.00
2533.00
2544.00
2555.00
2588.00
2594.00
2615.00
2624.00
2640.00
2640.00
2641.00
2639.00
2644.00
2642.00
2640.00
2624.00
2626.00
2618.00
2608.00
2608.00
2611.00
2606.00
2608.00
2603.00
2600.00
2602.00
2603.00
2608.00
2592.00
2596.00
2593.00
2570.00
2559.00
2551.00
2522.00
2529.00
2530.00
2517.00
2496.00
2479.00
2439.00
2422.00
2398.00
2380.00
2378.00
2372.00
2353.00
2342.00
2332.00
2318.00
2296.00
2294.00
2287.00
2269.00
2256.00
2257.00
2227.00
2234.00
2218.00
2198.00
2200.00
2199.00
2177.00
2172.00
2170.00
2145.00
2160.00
2151.00
2134.00
2150.00
2146.00
2114.00
2113.00
2103.00
2096.00
2091.00
2081.00
2067.00
2059.00
2057.00
2042.00
2054.00
2045.00
2042.00
2064.00
2045.00
2035.00
2026.00
2015.00
1997.00
1989.00
1980.00
1958.00
1953.00
1943.00
1954.00
1941.00
1943.00
1914.00
1940.00
1940.00
1942.00
1931.00
1907.00
1921.00
1913.00
1926.00
1937.00
1946.00
1950.00
1941.00
1951.00
1932.00
1922.00
1930.00
1936.00
1941.00
1919.00
1935.00
1936.00
1950.00
1963.00
1963.00
1926.00
1946.00
1936.00
1944.00
1936.00
1941.00
1933.00
1913.00
1904.00
1903.00
1904.00
1903.00
1907.00
1913.00
1917.00
1895.00
1900.00
1922.00
1923.00
1936.00
1929.00
1918.00
1935.00
1937.00
1942.00
1943.00
1942.00
1934.00
1938.00
1941.00
1942.00
1943.00
1952.00
1941.00
1952.00
1948.00
1940.00
1937.00
1936.00
1909.00
1920.00
1933.00
1937.00
1932.00
1927.00
1922.00
1927.00
1930.00
1937.00
1930.00
1937.00
1934.00
1943.00
1926.00
1935.00
1936.00
1929.00
1920.00
1909.00
1927.00
1940.00
1941.00
1934.00
1935.00
1931.00
1936.00
1926.00
1926.00
1904.00
1895.00
1929.00
1933.00
1939.00
1936.00
1936.00
1939.00
1937.00
1946.00
1945.00
1936.00
1936.00
1922.00
1933.00
1936.00
1946.00
1948.00
1952.00
1955.00
1937.00
1939.00
1938.00
1939.00
1931.00
1933.00
1935.00
1928.00
1928.00
1930.00
1923.00
1924.00
1909.00
1935.00
1951.00
1961.00
1951.00
1932.00
1922.00
1917.00
1911.00
1916.00
1901.00
1903.00
1891.00
1863.00
1874.00
1872.00
1855.00
1873.00
1872.00
1867.00
1862.00
1874.00
1872.00
1855.00
1863.00
1889.00
1895.00
1877.00
1892.00
1898.00
1899.00
1905.00
1891.00
1894.00
1887.00
1891.00
1895.00
1891.00
1890.00
1897.00
1895.00
1903.00
1907.00
1915.00
1909.00
1911.00
1922.00
1914.00
1925.00
1922.00
1921.00
1920.00
1924.00
1909.00
1904.00
1913.00
1899.00
1914.00
1920.00
1902.00
1913.00
1913.00
1914.00
1927.00
1945.00
1938.00
1904.00
1893.00
1891.00
1879.00
1891.00
1889.00
1858.00
1840.00
1815.00
1831.00
1811.00
1795.00
1789.00
1758.00
1735.00
1714.00
1682.00
1667.00
1667.00
1637.00
1610.00
1586.00
1574.00
1535.00
1502.00
1485.00
1475.00
1457.00
1457.00
1450.00
1435.00
1431.00
1438.00
1442.00
1453.00
1463.00
1456.00
1482.00
1509.00
1519.00
1509.00
1533.00
1547.00
1590.00
1608.00
1610.00
1626.00
1633.00
1623.00
1632.00
1653.00
1663.00
1664.00
1667.00
1680.00
1698.00
1715.00
1725.00
1742.00
1755.00
1766.00
1776.00
1785.00
1803.00
1817.00
1826.00
1843.00
1845.00
1839.00
1850.00
1838.00
1843.00
1858.00
1855.00
1856.00
1854.00
1837.00
1840.00
1860.00
1866.00
1872.00
1874.00
1872.00
1872.00
1877.00
1883.00
1886.00
1891.00
1890.00
1904.00
1910.00
1915.00
1917.00
1917.00
1915.00
1919.00
1920.00
1919.00
1917.00
1907.00
1925.00
1926.00
1933.00
1927.00
1932.00
1933.00
1930.00
1924.00
1914.00
1914.00
1918.00
1919.00
1921.00
1919.00
1923.00
1922.00
1918.00
1927.00
1929.00
1917.00
1925.00
1926.00
1930.00
1935.00
1933.00
1938.00
1936.00
1927.00
1931.00
1935.00
1938.00
1937.00
1935.00
1927.00
1920.00
1925.00
1921.00
1933.00
1952.00
1956.00
1936.00
1939.00
1945.00
1946.00
1946.00
1936.00
1940.00
1936.00
1931.00
1931.00
1941.00
1950.00
1947.00
1943.00
1940.00
1939.00
1933.00
1931.00
1937.00
1921.00
1933.00
1951.00
1948.00
1949.00
1936.00
1937.00
1933.00
1929.00
1925.00
1920.00
1917.00
1901.00
1903.00
1917.00
1933.00
1951.00
1963.00
1945.00
1923.00
1909.00
1879.00
1835.00
1807.00
1785.00
1760.00
1725.00
1682.00
1659.00
1629.00
1616.00
1613.00
1603.00
1610.00
1602.00
1603.00
1610.00
1616.00
1616.00
1628.00
1650.00
1675.00
1693.00
1707.00
1714.00
1727.00
1744.00
1760.00
1777.00
1788.00
1802.00
1825.00
1836.00
1845.00
1846.00
1858.00
1862.00
1869.00
1877.00
1873.00
1867.00
1871.00
1866.00
1856.00
1866.00
1871.00
1872.00
1877.00
1893.00
1908.00
1920.00
1945.00
1967.00
2000.00
2028.00
2061.00
2090.00
2112.00
2142.00
2163.00
2189.00
2207.00
2227.00
2247.00
2272.00
2288.00
2293.00
2307.00
2315.00
2345.00
2363.00
2375.00
2386.00
2385.00
2389.00
2384.00
2384.00
2369.00
2362.00
2363.00
2354.00
2350.00
2345.00
2337.00
2315.00
2293.00
2266.00
2251.00
2242.00
2255.00
2256.00
2245.00
2245.00
2243.00
2224.00
2220.00
2219.00
2207.00
2192.00
2175.00
2183.00
2170.00
2162.00
2149.00
2132.00
2128.00
2120.00
2112.00
2096.00
2083.00
2064.00
2063.00
2058.00
2032.00
2031.00
2030.00
2006.00
1986.00
1987.00
1985.00
1989.00
1985.00
1995.00
1970.00
1950.00
1974.00
1962.00
1947.00
1942.00
1931.00
1925.00
1927.00
1911.00
1903.00
1909.00
1917.00
1918.00
1907.00
1895.00
1883.00
1875.00
1870.00
1873.00
1879.00
1877.00
1875.00
1861.00
1861.00
1875.00
1879.00
1879.00
1872.00
1874.00
1876.00
1867.00
1863.00
1851.00
1840.00
1841.00
1841.00
1840.00
1823.00
1824.00
1829.00
1833.00
1830.00
1837.00
1840.00
1840.00
1839.00
1828.00
1849.00
1859.00
1861.00
1862.00
1862.00
1851.00
1871.00
1883.00
1886.00
1888.00
1882.00
1881.00
1889.00
1894.00
1893.00
1899.00
1893.00
1885.00
1890.00
1895.00
1907.00
1904.00
1913.00
1904.00
1907.00
1899.00
1895.00
1889.00
1885.00
1872.00
1862.00
1856.00
1865.00
1872.00
1881.00
1894.00
1902.00
1901.00
1904.00
1900.00
1891.00
1890.00
1898.00
1899.00
1904.00
1909.00
1899.00
1910.00
1915.00
1919.00
1927.00
1930.00
1934.00
1925.00
1933.00
1937.00
1941.00
1936.00
1937.00
1939.00
1949.00
1942.00
1943.00
1936.00
1950.00
1952.00
1950.00
1953.00
1949.00
1939.00
1939.00
1936.00
1934.00
1936.00
1936.00
1943.00
1959.00
1953.00
1957.00
1964.00
1965.00
1966.00
1965.00
1962.00
1959.00
1949.00
1949.00
1953.00
1962.00
1952.00
1951.00
1940.00
1939.00
1943.00
1949.00
1959.00
1954.00
1966.00
1942.00
1939.00
1943.00
1951.00
1951.00
1947.00
1947.00
1946.00
1933.00
1936.00
1930.00
1918.00
1917.00
1915.00
1911.00
1913.00
1915.00
1920.00
1912.00
1919.00
1922.00
1920.00
1931.00
1935.00
1930.00
1933.00
1923.00
1930.00
1933.00
1929.00
1935.00
1925.00
1930.00
1926.00
1933.00
1937.00
1936.00
1936.00
1938.00
1937.00
1933.00
1936.00
1938.00
1933.00
1897.00
1874.00
1845.00
1815.00
1776.00
1749.00
1711.00
1693.00
1685.00
1670.00
1657.00
1649.00
1648.00
1649.00
1657.00
1663.00
1669.00
1675.00
1680.00
1689.00
1702.00
1712.00
1718.00
1717.00
1729.00
1744.00
1753.00
1764.00
1775.00
1781.00
1787.00
1799.00
1809.00
1810.00
1789.00
1767.00
1750.00
1719.00
1665.00
1624.00
1572.00
1490.00
1424.00
1360.00
1318.00
1249.00
1173.00
1122.00
1067.00
1008.00
976.00
924.00
836.00
802.00
795.00
783.00
782.00
757.00
722.00
727.00
731.00
704.00
698.00
705.00
690.00
660.00
679.00
688.00
706.00
720.00
729.00
741.00
742.00
772.00
772.00
805.00
832.00
858.00
869.00
882.00
907.00
928.00
946.00
973.00
1006.00
1013.00
1013.00
1059.00
1090.00
1104.00
1117.00
1139.00
1165.00
1200.00
1220.00
1214.00
1261.00
1264.00
1313.00
1339.00
1360.00
1377.00
1421.00
1456.00
1424.00
1413.00
1387.00
1419.00
1429.00
1437.00
1461.00
1457.00
1498.00
1519.00
1521.00
1531.00
1567.00
1597.00
1607.00
1632.00
1653.00
1661.00
1656.00
1670.00
1680.00
1742.00
1729.00
1749.00
1760.00
1764.00
1776.00
1796.00
1798.00
1804.00
1803.00
1817.00
1831.00
1837.00
1841.00
1840.00
1870.00
1869.00
1871.00
1869.00
1872.00
1872.00
1867.00
1873.00
1874.00
1889.00
1899.00
1903.00
1907.00
1920.00
1918.00
1912.00
1923.00
1927.00
1932.00
1939.00
1939.00
1936.00
1936.00
1923.00
1913.00
1904.00
1904.00
1916.00
1924.00
1926.00
1929.00
1929.00
1936.00
1934.00
1931.00
1910.00
1910.00
1887.00
1867.00
1845.00
1851.00
1840.00
1819.00
1786.00
1780.00
1775.00
1753.00
1769.00
1766.00
1771.00
1775.00
1779.00
1775.00
1745.00
1776.00
1793.00
1798.00
1780.00
1801.00
1798.00
1808.00
1813.00
1840.00
1857.00
1859.00
1870.00
1872.00
1882.00
1894.00
1891.00
1863.00
1877.00
1872.00
1886.00
1885.00
1887.00
1898.00
1889.00
1890.00
1901.00
1901.00
1901.00
1895.00
1895.00
1888.00
1873.00
1871.00
1863.00
1872.00
1872.00
1871.00
1872.00
1870.00
1875.00
1880.00
1878.00
1891.00
1899.00
1904.00
1899.00
1910.00
1901.00
1907.00
1906.00
1904.00
1893.00
1887.00
1885.00
1876.00
1877.00
1888.00
1902.00
1904.00
1904.00
1911.00
1914.00
1930.00
1936.00
1936.00
1935.00
1935.00
1931.00
1915.00
1905.00
1903.00
1894.00
1883.00
1899.00
1907.00
1908.00
1920.00
1917.00
1919.00
1910.00
1918.00
1918.00
1906.00
1903.00
1925.00
1933.00
1936.00
1936.00
1936.00
1934.00
1918.00
1911.00
1909.00
1905.00
1910.00
1922.00
1920.00
1916.00
1915.00
1920.00
1920.00
1926.00
1924.00
1936.00
1923.00
1930.00
1925.00
1927.00
1921.00
1923.00
1916.00
1913.00
1905.00
1899.00
1908.00
1915.00
1923.00
1920.00
1922.00
1922.00
1921.00
1914.00
1904.00
1882.00
1874.00
1890.00
1900.00
1915.00
1939.00
1968.00
1998.00
2055.00
2105.00
2143.00
2166.00
2192.00
2215.00
2221.00
2225.00
2239.00
2239.00
2227.00
2208.00
2213.00
2205.00
2196.00
2178.00
2169.00
2173.00
2166.00
2160.00
2149.00
2131.00
2107.00
2103.00
2091.00
2083.00
2073.00
2062.00
2037.00
2023.00
2007.00
2006.00
1998.00
1989.00
1994.00
1986.00
1982.00
1970.00
1951.00
1968.00
1982.00
2001.00
2018.00
2059.00
2100.00
2127.00
2160.00
2202.00
2244.00
2293.00
2356.00
2411.00
2437.00
2474.00
2499.00
2521.00
2527.00
2531.00
2540.00
2535.00
2537.00
2529.00
2515.00
2512.00
2499.00
2496.00
2486.00
2490.00
2481.00
2475.00
2459.00
2442.00
2437.00
2437.00
2429.00
2416.00
2401.00
2385.00
2365.00
2340.00
2325.00
2306.00
2287.00
2263.00
2253.00
2235.00
2218.00
2196.00
2181.00
2160.00
2143.00
2127.00
2111.00
2095.00
2064.00
2055.00
2071.00
2096.00
2115.00
2143.00
2173.00
2199.00
2241.00
2285.00
2322.00
2362.00
2395.00
2427.00
2461.00
2482.00
2498.00
2493.00
2494.00
2481.00
2480.00
2450.00
2421.00
2397.00
2370.00
2357.00
2336.00
2315.00
2288.00
2256.00
2238.00
2219.00
2200.00
2185.00
2171.00
2160.00
2139.00
2125.00
2117.00
2107.00
2095.00
2090.00
2074.00
2064.00
2043.00
2023.00
2015.00
2005.00
2002.00
2001.00
2011.00
1999.00
1985.00
1982.00
1974.00
1969.00
1967.00
1963.00
1959.00
1945.00
1941.00
1935.00
1936.00
1933.00
1922.00
1920.00
1915.00
1914.00
1926.00
1935.00
1936.00
1939.00
1943.00
1940.00
1941.00
1936.00
1937.00
1936.00
1936.00
1936.00
1936.00
1939.00
1936.00
1943.00
1938.00
1932.00
1919.00
1904.00
1906.00
1900.00
1883.00
1873.00
1873.00
1865.00
1865.00
1871.00
1877.00
1869.00
1865.00
1865.00
1872.00
1870.00
1866.00
1875.00
1875.00
1878.00
1878.00
1875.00
1873.00
1871.00
1869.00
1875.00
1887.00
1889.00
1891.00
1902.00
1904.00
1906.00
1920.00
1922.00
1920.00
1926.00
1917.00
1909.00
1909.00
1920.00
1925.00
1935.00
1929.00
1931.00
1930.00
1932.00
1926.00
1932.00
1929.00
1932.00
1924.00
1917.00
1920.00
1917.00
1921.00
1918.00
1917.00
1918.00
1907.00
1910.00
1919.00
1916.00
1916.00
1923.00
1924.00
1926.00
1925.00
1923.00
1929.00
1936.00
1936.00
1938.00
1942.00
1938.00
1936.00
1927.00
1923.00
1923.00
1904.00
1883.00
1872.00
1858.00
1851.00
1830.00
1809.00
1792.00
1779.00
1776.00
1776.00
1776.00
1769.00
1765.00
1747.00
1743.00
1739.00
1737.00
1728.00
1718.00
1718.00
1715.00
1728.00
1743.00
1749.00
1749.00
1771.00
1778.00
1776.00
1771.00
1767.00
1769.00
1781.00
1796.00
1804.00
1817.00
1822.00
1833.00
1840.00
1862.00
1872.00
1886.00
1895.00
1904.00
1916.00
1918.00
1926.00
1926.00
1936.00
1942.00
1963.00
1981.00
1997.00
2010.00
2016.00
2021.00
2032.00
2023.00
2029.00
2033.00
2032.00
2035.00
2034.00
2027.00
2029.00
2031.00
2041.00
2041.00
2037.00
2042.00
2047.00
2047.00
2036.00
2037.00
2045.00
2035.00
2039.00
2038.00
2029.00
2012.00
2000.00
2007.00
2017.00
2026.00
2031.00
2031.00
2023.00
2032.00
2025.00
2013.00
2010.00
2002.00
1991.00
1988.00
1989.00
1986.00
1987.00
1997.00
1995.00
1986.00
1982.00
1979.00
1968.00
1968.00
1968.00
1974.00
1970.00
1967.00
1968.00
1967.00
1967.00
1968.00
1964.00
1962.00
1964.00
1955.00
1949.00
1936.00
1936.00
1942.00
1947.00
1951.00
1955.00
1952.00
1949.00
1946.00
1936.00
1936.00
1934.00
1933.00
1935.00
1937.00
1935.00
1933.00
1929.00
1921.00
1923.00
1929.00
1938.00
1945.00
1942.00
1949.00
1948.00
1943.00
1939.00
1942.00
1950.00
1943.00
1947.00
1947.00
1950.00
1949.00
1950.00
1943.00
1937.00
1936.00
1936.00
1936.00
1943.00
1949.00
1953.00
1946.00
1943.00
1935.00
1933.00
1936.00
1937.00
1936.00
1935.00
1936.00
1934.00
1931.00
1934.00
1931.00
1927.00
1929.00
1927.00
1923.00
1914.00
1913.00
1918.00
1917.00
1920.00
1925.00
1926.00
1921.00
1919.00
1916.00
1919.00
1923.00
1920.00
1919.00
1904.00
1904.00
1919.00
1936.00
1968.00
2002.00
2043.00
2092.00
2129.00
2177.00
2222.00
2274.00
2320.00
2367.00
2416.00
2470.00
2522.00
2559.00
2610.00
2646.00
2682.00
2715.00
2740.00
2768.00
2790.00
2801.00
2825.00
2830.00
2826.00
2833.00
2837.00
2835.00
2832.00
2822.00
2816.00
2800.00
2803.00
2789.00
2761.00
2755.00
2727.00
2706.00
2675.00
2666.00
2645.00
2602.00
2589.00
2578.00
2554.00
2542.00
2512.00
2477.00
2447.00
2418.00
2432.00
2409.00
2385.00
2370.00
2346.00
2314.00
2291.00
2285.00
2253.00
2261.00
2257.00
2256.00
2253.00
2227.00
2192.00
2185.00
2171.00
2164.00
2161.00
2166.00
2160.00
2156.00
2146.00
2128.00
2116.00
2111.00
2097.00
2067.00
2035.00
2057.00
2046.00
2031.00
2001.00
2000.00
1995.00
1978.00
1964.00
1963.00
1954.00
1966.00
1968.00
1967.00
1969.00
1954.00
1921.00
1936.00
1939.00
1930.00
1936.00
1942.00
1934.00
1939.00
1947.00
1938.00
1933.00
1931.00
1936.00
1929.00
1931.00
1935.00
1932.00
1923.00
1939.00
1936.00
1955.00
1953.00
1942.00
1929.00
1930.00
1936.00
1937.00
1927.00
1938.00
1932.00
1930.00
1947.00
1936.00
1927.00
1934.00
1931.00
1936.00
1930.00
1922.00
1923.00
1903.00
1904.00
1893.00
1902.00
1904.00
1891.00
1889.00
1893.00
1907.00
1938.00
1929.00
1904.00
1872.00
1876.00
1870.00
1855.00
1827.00
1794.00
1789.00
1777.00
1744.00
1762.00
1767.00
1745.00
1757.00
1753.00
1763.00
1773.00
1773.00
1771.00
1774.00
1766.00
1776.00
1776.00
1777.00
1793.00
1794.00
1805.00
1811.00
1807.00
1808.00
1806.00
1806.00
1813.00
1825.00
1840.00
1850.00
1854.00
1861.00
1869.00
1872.00
1883.00
1884.00
1865.00
1877.00
1891.00
1900.00
1901.00
1894.00
1897.00
1883.00
1887.00
1886.00
1897.00
1907.00
1908.00
1911.00
1912.00
1904.00
1907.00
1861.00
1898.00
1910.00
1898.00
1904.00
1891.00
1876.00
1887.00
1904.00
1910.00
1921.00
1918.00
1925.00
1921.00
1920.00
1896.00
1915.00
1941.00
1963.00
1961.00
1921.00
1873.00
1824.00
1770.00
1699.00
1651.00
1584.00
1517.00
1439.00
1398.00
1361.00
1331.00
1313.00
1303.00
1303.00
1307.00
1305.00
1328.00
1333.00
1349.00
1370.00
1387.00
1407.00
1446.00
1459.00
1487.00
1510.00
1527.00
1554.00
1582.00
1592.00
1606.00
1651.00
1675.00
1687.00
1714.00
1730.00
1751.00
1775.00
1795.00
1803.00
1803.00
1806.00
1818.00
1824.00
1829.00
1835.00
1847.00
1849.00
1853.00
1855.00
1856.00
1859.00
1871.00
1840.00
1872.00
1891.00
1895.00
1903.00
1904.00
1894.00
1889.00
1899.00
1905.00
1911.00
1917.00
1920.00
1911.00
1902.00
1895.00
1909.00
1909.00
1927.00
1910.00
1931.00
1925.00
1927.00
1928.00
1933.00
1931.00
1935.00
1922.00
1918.00
1929.00
1904.00
1940.00
1955.00
1955.00
1957.00
1963.00
1958.00
1953.00
1939.00
1923.00
1920.00
1929.00
1923.00
1931.00
1927.00
1933.00
1933.00
1923.00
1925.00
1918.00
1920.00
1918.00
1915.00
1914.00
1911.00
1921.00
1929.00
1931.00
1919.00
1921.00
1930.00
1934.00
1931.00
1938.00
1936.00
1923.00
1922.00
1914.00
1920.00
1909.00
1909.00
1921.00
1931.00
1925.00
1929.00
1926.00
1917.00
1936.00
1942.00
1945.00
1917.00
1881.00
1860.00
1840.00
1802.00
1747.00
1696.00
1645.00
1599.00
1552.00
1499.00
1447.00
1403.00
1360.00
1315.00
1296.00
1291.00
1282.00
1303.00
1309.00
1323.00
1348.00
1377.00
1397.00
1422.00
1445.00
1461.00
1472.00
1497.00
1519.00
1548.00
1575.00
1590.00
1616.00
1646.00
1665.00
1684.00
1702.00
1709.00
1734.00
1745.00
1748.00
1782.00
1803.00
1808.00
1813.00
1824.00
1843.00
1855.00
1856.00
1861.00
1872.00
1877.00
1888.00
1890.00
1885.00
1873.00
1872.00
1886.00
1889.00
1892.00
1893.00
1899.00
1903.00
1903.00
1899.00
1897.00
1903.00
1897.00
1903.00
1881.00
1904.00
1903.00
1904.00
1902.00
1899.00
1903.00
1915.00
1921.00
1916.00
1919.00
1919.00
1935.00
1931.00
1924.00
1915.00
1914.00
1904.00
1905.00
1911.00
1915.00
1904.00
1900.00
1914.00
1915.00
1904.00
1901.00
1904.00
1913.00
1916.00
1921.00
1925.00
1935.00
1930.00
1926.00
1930.00
1932.00
1934.00
1936.00
1936.00
1939.00
1936.00
1933.00
1929.00
1931.00
1941.00
1936.00
1937.00
1937.00
1934.00
1934.00
1926.00
1921.00
1918.00
1915.00
1914.00
1913.00
1922.00
1931.00
1917.00
1890.00
1879.00
1851.00
1835.00
1792.00
1750.00
1711.00
1658.00
1607.00
1562.00
1515.00
1466.00
1423.00
1385.00
1338.00
1296.00
1260.00
1224.00
1194.00
1153.00
1130.00
1107.00
1094.00
1082.00
1072.00
1060.00
1057.00
1058.00
1059.00
1063.00
1067.00
1079.00
1089.00
1103.00
1111.00
1133.00
1155.00
1179.00
1200.00
1227.00
1245.00
1270.00
1296.00
1326.00
1351.00
1373.00
1392.00
1417.00
1446.00
1473.00
1494.00
1521.00
1552.00
1591.00
1622.00
1644.00
1680.00
1707.00
1725.00
1761.00
1789.00
1815.00
1858.00
1904.00
1931.00
1970.00
1996.00
2007.00
2023.00
2039.00
2064.00
2080.00
2089.00
2101.00
2109.00
2113.00
2128.00
2129.00
2151.00
2165.00
2173.00
2186.00
2192.00
2181.00
2170.00
2167.00
2166.00
2160.00
2176.00
2176.00
2192.00
2202.00
2203.00
2205.00
2230.00
2227.00
2227.00
2230.00
2223.00
2206.00
2193.00
2174.00
2151.00
2139.00
2126.00
2103.00
2096.00
2095.00
2077.00
2059.00
2046.00
2032.00
2030.00
2014.00
1990.00
1984.00
1978.00
1953.00
1967.00
1963.00
1954.00
1962.00
1962.00
1953.00
1937.00
1941.00
1930.00
1925.00
1921.00
1923.00
1928.00
1925.00
1920.00
1924.00
1925.00
1930.00
1925.00
1923.00
1921.00
1930.00
1927.00
1931.00
1930.00
1933.00
1933.00
1938.00
1927.00
1936.00
1936.00
1933.00
1931.00
1935.00
1948.00
1947.00
1960.00
1962.00
1959.00
1957.00
1955.00
1961.00
1947.00
1927.00
1901.00
1834.00
1798.00
1747.00
1679.00
1605.00
1535.00
1471.00
1413.00
1360.00
1311.00
1265.00
1216.00
1179.00
1137.00
1136.00
1125.00
1134.00
1136.00
1147.00
1165.00
1181.00
1201.00
1242.00
1274.00
1289.00
1343.00
1376.00
1413.00
1443.00
1488.00
1518.00
1555.00
1584.00
1607.00
1627.00
1651.00
1669.00
1701.00
1714.00
1748.00
1771.00
1785.00
1802.00
1823.00
1830.00
1831.00
1840.00
1861.00
1872.00
1883.00
1851.00
1878.00
1869.00
1873.00
1869.00
1851.00
1819.00
1830.00
1829.00
1793.00
1792.00
1787.00
1765.00
1773.00
1757.00
1737.00
1713.00
1712.00
1689.00
1682.00
1671.00
1657.00
1658.00
1663.00
1654.00
1627.00
1666.00
1685.00
1686.00
1685.00
1693.00
1695.00
1687.00
1714.00
1734.00
1744.00
1754.00
1755.00
1781.00
1782.00
1766.00
1810.00
1836.00
1866.00
1875.00
1883.00
1875.00
1883.00
1903.00
1927.00
1953.00
1947.00
1979.00
1988.00
1984.00
1953.00
1989.00
1994.00
1991.00
1975.00
1963.00
1975.00
1965.00
1964.00
1968.00
1905.00
1945.00
1942.00
1904.00
1917.00
1882.00
1904.00
1920.00
1906.00
1920.00
1872.00
1889.00
1887.00
1879.00
1866.00
1825.00
1819.00
1824.00
1823.00
1840.00
1856.00
1847.00
1862.00
1851.00
1869.00
1874.00
1853.00
1881.00
1872.00
1866.00
1897.00
1909.00
1921.00
1894.00
1892.00
1903.00
1920.00
1916.00
1910.00
1927.00
1931.00
1925.00
1919.00
1931.00
1926.00
1927.00
1904.00
1919.00
1907.00
1919.00
1936.00
1936.00
1935.00
1936.00
1921.00
1866.00
1911.00
1904.00
1904.00
1901.00
1906.00
1918.00
1927.00
1933.00
1940.00
1943.00
1937.00
1949.00
1939.00
1903.00
1915.00
1922.00
1933.00
1934.00
1942.00
1904.00
1910.00
1917.00
1920.00
1910.00
1904.00
1904.00
1919.00
1872.00
1923.00
1939.00
1950.00
1946.00
1913.00
1936.00
1904.00
1894.00
1813.00
1901.00
1940.00
1953.00
1961.00
2000.00
2074.00
2138.00
2197.00
2224.00
2254.00
2287.00
2310.00
2270.00
2352.00
2366.00
2313.00
2331.00
2349.00
2341.00
2339.00
2325.00
2291.00
2305.00
2306.00
2282.00
2280.00
2167.00
2241.00
2231.00
2207.00
2194.00
2165.00
2155.00
2133.00
2128.00
2121.00
2102.00
2093.00
2083.00
2081.00
2031.00
2031.00
2022.00
2009.00
2010.00
2006.00
1991.00
1993.00
1985.00
1998.00
1985.00
1982.00
1979.00
1978.00
1979.00
1970.00
1951.00
1939.00
1939.00
1959.00
1953.00
1936.00
1910.00
1905.00
1901.00
1909.00
1904.00
1909.00
1904.00
1877.00
1869.00
1872.00
1888.00
1893.00
1939.00
1986.00
2030.00
2079.00
2128.00
2188.00
2240.00
2266.00
2310.00
2373.00
2385.00
2439.00
2466.00
2477.00
2482.00
2480.00
2475.00
2469.00
2447.00
2422.00
2413.00
2387.00
2379.00
2352.00
2325.00
2296.00
2272.00
2239.00
2235.00
2210.00
2192.00
2177.00
2144.00
2128.00
2124.00
2108.00
2094.00
2081.00
2078.00
2059.00
2055.00
2045.00
2033.00
2032.00
2017.00
2016.00
2000.00
2001.00
1982.00
2000.00
1994.00
1994.00
1982.00
1985.00
1978.00
1978.00
1967.00
1964.00
1959.00
1942.00
1945.00
1950.00
1942.00
1926.00
1936.00
1963.00
1978.00
2014.00
2057.00
2092.00
2126.00
2179.00
2231.00
2283.00
2335.00
2383.00
2435.00
2470.00
2519.00
2559.00
2601.00
2639.00
2663.00
2698.00
2722.00
2737.00
2758.00
2787.00
2806.00
2823.00
2836.00
2839.00
2838.00
2832.00
2831.00
2821.00
2799.00
2781.00
2770.00
2743.00
2727.00
2693.00
2672.00
2652.00
2629.00
2602.00
2575.00
2539.00
2523.00
2510.00
2483.00
2471.00
2460.00
2443.00
2442.00
2438.00
2427.00
2413.00
2414.00
2417.00
2422.00
2423.00
2423.00
2428.00
2433.00
2437.00
2431.00
2423.00
2423.00
2384.00
2398.00
2395.00
2383.00
2379.00
2370.00
2355.00
2346.00
2329.00
2320.00
2321.00
2306.00
2301.00
2289.00
2283.00
2290.00
2288.00
2277.00
2274.00
2268.00
2255.00
2239.00
2207.00
2189.00
2174.00
2151.00
2126.00
2112.00
2097.00
2083.00
2070.00
2047.00
2019.00
2025.00
2013.00
2000.00
1993.00
1986.00
1982.00
1961.00
1961.00
1943.00
1936.00
1936.00
1937.00
1933.00
1936.00
1938.00
1936.00
1934.00
1931.00
1925.00
1913.00
1911.00
1910.00
1917.00
1941.00
1926.00
1927.00
1927.00
1925.00
1927.00
1927.00
1933.00
1931.00
1929.00
1925.00
1938.00
1926.00
1934.00
1926.00
1935.00
1936.00
1933.00
1934.00
1929.00
1920.00
1918.00
1920.00
1921.00
1904.00
1914.00
1925.00
1927.00
1931.00
1924.00
1919.00
1904.00
1909.00
1901.00
1906.00
1907.00
1907.00
1909.00
1917.00
1921.00
1904.00
1906.00
1914.00
1918.00
1924.00
1930.00
1930.00
1926.00
1922.00
1926.00
1920.00
1918.00
1919.00
1922.00
1917.00
1939.00
1942.00
1942.00
1944.00
1936.00
1947.00
1942.00
1942.00
1934.00
1927.00
1931.00
1936.00
1921.00
1941.00
1937.00
1922.00
1931.00
1925.00
1935.00
1939.00
1937.00
1940.00
1937.00
1934.00
1921.00
1910.00
1925.00
1931.00
1914.00
1918.00
1927.00
1926.00
1919.00
1918.00
1911.00
1919.00
1913.00
1909.00
1905.00
1899.00
1905.00
1919.00
1931.00
1934.00
1935.00
1941.00
1943.00
1948.00
1941.00
1938.00
1937.00
1947.00
1958.00
1961.00
1963.00
1968.00
1971.00
1970.00
1970.00
1970.00
1959.00
1947.00
1945.00
1949.00
1963.00
1965.00
1951.00
1954.00
1936.00
1936.00
1935.00
1959.00
1969.00
1973.00
1972.00
1971.00
1971.00
1967.00
1941.00
1964.00
1962.00
1954.00
1943.00
1947.00
1966.00
1977.00
1997.00
2013.00
2057.00
2094.00
2123.00
2148.00
2172.00
2186.00
2210.00
2226.00
2251.00
2253.00
2257.00
2279.00
2278.00
2271.00
2285.00
2284.00
2276.00
2246.00
2254.00
2245.00
2241.00
2226.00
2214.00
2213.00
2200.00
2190.00
2179.00
2157.00
2160.00
2134.00
2132.00
2115.00
2096.00
2085.00
2069.00
2065.00
2063.00
2071.00
2079.00
2085.00
2085.00
2090.00
2095.00
2101.00
2115.00
2119.00
2118.00
2101.00
2103.00
2111.00
2109.00
2083.00
2096.00
2088.00
2076.00
2058.00
2027.00
2031.00
2021.00
2004.00
2000.00
1988.00
1955.00
1970.00
1965.00
1954.00
1917.00
1922.00
1909.00
1902.00
1892.00
1887.00
1878.00
1870.00
1871.00
1872.00
1866.00
1866.00
1867.00
1882.00
1887.00
1890.00
1878.00
1881.00
1885.00
1883.00
1881.00
1885.00
1879.00
1886.00
1893.00
1891.00
1890.00
1897.00
1910.00
1916.00
1910.00
1920.00
1923.00
1920.00
1908.00
1907.00
1923.00
1914.00
1915.00
1916.00
1914.00
1915.00
1906.00
1922.00
1926.00
1922.00
1915.00
1904.00
1911.00
1914.00
1917.00
1924.00
1933.00
1929.00
1919.00
1915.00
1916.00
1907.00
1902.00
1883.00
1872.00
1869.00
1870.00
1871.00
1888.00
1889.00
1877.00
1878.00
1870.00
1876.00
1885.00
1887.00
1883.00
1902.00
1905.00
1899.00
1904.00
1934.00
1941.00
1925.00
1894.00
1882.00
1856.00
1808.00
1790.00
1756.00
1712.00
1663.00
1617.00
1564.00
1502.00
1455.00
1397.00
1348.00
1303.00
1254.00
1189.00
1154.00
1104.00
1056.00
1012.00
968.00
923.00
887.00
853.00
815.00
777.00
755.00
730.00
697.00
689.00
687.00
688.00
686.00
683.00
675.00
668.00
672.00
663.00
672.00
676.00
701.00
720.00
734.00
755.00
781.00
783.00
801.00
801.00
817.00
842.00
858.00
880.00
907.00
928.00
955.00
978.00
981.00
1043.00
1079.00
1113.00
1155.00
1193.00
1242.00
1271.00
1301.00
1337.00
1358.00
1410.00
1442.00
1465.00
1492.00
1535.00
1573.00
1598.00
1619.00
1644.00
1658.00
1678.00
1680.00
1709.00
1727.00
1742.00
1759.00
1765.00
1783.00
1789.00
1792.00
1814.00
1840.00
1847.00
1844.00
1836.00
1808.00
1770.00
1731.00
1699.00
1646.00
1616.00
1572.00
1546.00
1511.00
1481.00
1451.00
1423.00
1386.00
1362.00
1335.00
1318.00
1296.00
1271.00
1264.00
1259.00
1255.00
1260.00
1258.00
1264.00
1262.00
1265.00
1279.00
1290.00
1291.00
1293.00
1315.00
1335.00
1357.00
1371.00
1379.00
1394.00
1424.00
1441.00
1467.00
1486.00
1491.00
1526.00
1552.00
1577.00
1590.00
1604.00
1623.00
1639.00
1659.00
1670.00
1685.00
1703.00
1726.00
1744.00
1754.00
1761.00
1767.00
1778.00
1793.00
1806.00
1813.00
1840.00
1854.00
1870.00
1873.00
1881.00
1886.00
1886.00
1877.00
1877.00
1872.00
1872.00
1879.00
1890.00
1899.00
1905.00
1917.00
1911.00
1911.00
1919.00
1919.00
1910.00
1915.00
1927.00
1914.00
1910.00
1911.00
1920.00
1921.00
1923.00
1919.00
1917.00
1907.00
1909.00
1903.00
1897.00
1890.00
1883.00
1895.00
1898.00
1903.00
1904.00
1909.00
1911.00
1907.00
1913.00
1917.00
1921.00
1925.00
1927.00
1927.00
1921.00
1925.00
1936.00
1936.00
1951.00
1945.00
1936.00
1935.00
1932.00
1925.00
1924.00
1929.00
1927.00
1927.00
1924.00
1921.00
1947.00
1968.00
1935.00
1931.00
1924.00
1909.00
1906.00
1910.00
1886.00
1851.00
1847.00
1875.00
1905.00
1935.00
1968.00
2000.00
2046.00
2093.00
2125.00
2163.00
2199.00
2254.00
2270.00
2289.00
2315.00
2341.00
2365.00
2386.00
2414.00
2431.00
2453.00
2477.00
2494.00
2497.00
2510.00
2517.00
2512.00
2507.00
2499.00
2480.00
2465.00
2461.00
2429.00
2397.00
2371.00
2352.00
2317.00
2306.00
2286.00
2272.00
2257.00
2236.00
2215.00
2193.00
2177.00
2177.00
2143.00
2112.00
2096.00
2086.00
2072.00
2063.00
2058.00
2044.00
2032.00
2030.00
2021.00
2007.00
2005.00
2005.00
2005.00
2000.00
2001.00
1990.00
1985.00
1981.00
1978.00
1970.00
1962.00
1955.00
1961.00
1957.00
1951.00
1951.00
1942.00
1945.00
1939.00
1942.00
1953.00
1955.00
1962.00
1961.00
1967.00
1962.00
1952.00
1933.00
1917.00
1936.00
1957.00
1987.00
2021.00
2055.00
2099.00
2115.00
2131.00
2133.00
2140.00
2148.00
2146.00
2149.00
2143.00
2139.00
2141.00
2131.00
2124.00
2127.00
2123.00
2113.00
2099.00
2083.00
2075.00
2064.00
2059.00
2047.00
2032.00
2013.00
1999.00
1989.00
1985.00
1987.00
1978.00
1970.00
1963.00
1953.00
1952.00
1951.00
1949.00
1951.00
1947.00
1937.00
1934.00
1931.00
1926.00
1940.00
1939.00
1937.00
1938.00
1940.00
1936.00
1936.00
1936.00
1938.00
1949.00
1953.00
1962.00
1945.00
1924.00
1901.00
1867.00
1840.00
1815.00
1779.00
1753.00
1753.00
1741.00
1724.00
1722.00
1727.00
1731.00
1735.00
1736.00
1733.00
1737.00
1747.00
1754.00
1765.00
1766.00
1771.00
1776.00
1782.00
1797.00
1807.00
1814.00
1819.00
1829.00
1833.00
1839.00
1842.00
1845.00
1851.00
1845.00
1846.00
1854.00
1862.00
1856.00
1860.00
1870.00
1866.00
1862.00
1872.00
1871.00
1869.00
1862.00
1871.00
1903.00
1929.00
1972.00
2021.00
2070.00
2128.00
2186.00
2239.00
2295.00
2352.00
2400.00
2453.00
2497.00
2524.00
2538.00
2544.00
2542.00
2533.00
2522.00
2514.00
2502.00
2481.00
2466.00
2448.00
2429.00
2406.00
2384.00
2359.00
2331.00
2304.00
2282.00
2258.00
2241.00
2229.00
2219.00
2202.00
2191.00
2176.00
2163.00
2155.00
2149.00
2130.00
2127.00
2112.00
2100.00
2087.00
2077.00
2066.00
2033.00
2029.00
2038.00
2045.00
2053.00
2067.00
2080.00
2086.00
2092.00
2096.00
2096.00
2098.00
2095.00
2086.00
2071.00
2061.00
2044.00
2039.00
2032.00
2025.00
2015.00
2000.00
1989.00
1980.00
1971.00
1968.00
1955.00
1946.00
1941.00
1936.00
1938.00
1939.00
1937.00
1935.00
1931.00
1926.00
1923.00
1925.00
1926.00
1920.00
1918.00
1918.00
1915.00
1909.00
1909.00
1915.00
1909.00
1904.00
1906.00
1908.00
1910.00
1907.00
1913.00
1921.00
1927.00
1926.00
1919.00
1913.00
1904.00
1902.00
1896.00
1895.00
1876.00
1873.00
1867.00
1866.00
1886.00
1886.00
1883.00
1883.00
1897.00
1876.00
1875.00
1862.00
1867.00
1872.00
1861.00
1883.00
1906.00
1929.00
1962.00
1999.00
2064.00
2108.00
2163.00
2197.00
2239.00
2314.00
2383.00
2433.00
2480.00
2535.00
2585.00
2630.00
2661.00
2695.00
2725.00
2752.00
2775.00
2783.00
2795.00
2809.00
2815.00
2818.00
2817.00
2811.00
2802.00
2794.00
2775.00
2753.00
2735.00
2717.00
2699.00
2667.00
2643.00
2624.00
2587.00
2546.00
2512.00
2491.00
2463.00
2427.00
2384.00
2354.00
2320.00
2275.00
2235.00
2203.00
2165.00
2125.00
2090.00
2038.00
2000.00
1952.00
1917.00
1883.00
1840.00
1801.00
1763.00
1719.00
1680.00
1632.00
1596.00
1547.00
1509.00
1479.00
1457.00
1456.00
1456.00
1456.00
1465.00
1478.00
1495.00
1505.00
1520.00
1535.00
1552.00
1566.00
1584.00
1600.00
1615.00
1623.00
1634.00
1659.00
1680.00
1692.00
1712.00
1727.00
1747.00
1763.00
1776.00
1786.00
1791.00
1808.00
1816.00
1823.00
1840.00
1861.00
1872.00
1847.00
1830.00
1811.00
1787.00
1751.00
1712.00
1662.00
1615.00
1569.00
1519.00
1494.00
1493.00
1502.00
1497.00
1502.00
1520.00
1527.00
1549.00
1562.00
1586.00
1606.00
1623.00
1643.00
1657.00
1660.00
1669.00
1687.00
1712.00
1722.00
1732.00
1744.00
1759.00
1773.00
1780.00
1792.00
1808.00
1799.00
1824.00
1823.00
1836.00
1841.00
1856.00
1857.00
1872.00
1874.00
1879.00
1886.00
1901.00
1904.00
1904.00
1897.00
1901.00
1901.00
1902.00
1895.00
1901.00
1906.00
1911.00
1916.00
1910.00
1909.00
1904.00
1904.00
1900.00
1895.00
1897.00
1914.00
1936.00
1936.00
1945.00
1957.00
1960.00
1970.00
1975.00
1971.00
1965.00
1971.00
1978.00
1978.00
1971.00
1964.00
1958.00
1958.00
1955.00
1936.00
1923.00
1917.00
1903.00
1893.00
1886.00
1891.00
1872.00
1870.00
1865.00
1856.00
1849.00
1840.00
1828.00
1823.00
1821.00
1827.00
1822.00
1819.00
1825.00
1833.00
1841.00
1854.00
1867.00
1873.00
1891.00
1903.00
1894.00
1892.00
1904.00
1913.00
1935.00
1948.00
1965.00
1983.00
1984.00
1988.00
2000.00
2015.00
2029.00
2038.00
2043.00
2053.00
2059.00
2065.00
2078.00
2085.00
2073.00
2053.00
2042.00
2053.00
2034.00
2033.00
2057.00
2067.00
2064.00
2058.00
2045.00
2033.00
2034.00
2031.00
2021.00
2017.00
2011.00
1984.00
1973.00
1971.00
1968.00
1968.00
1971.00
1970.00
1974.00
1981.00
1982.00
1974.00
1965.00
1966.00
1971.00
1974.00
1962.00
1968.00
1969.00
1955.00
1942.00
1935.00
1942.00
1936.00
1939.00
1953.00
1967.00
1962.00
1952.00
1951.00
1954.00
1955.00
1959.00
1968.00
1973.00
1972.00
1979.00
1993.00
1997.00
1991.00
2000.00
1997.00
1994.00
2001.00
2005.00
2007.00
2019.00
2013.00
2005.00
2011.00
2005.00
2010.00
2009.00
2000.00
2000.00
2002.00
2000.00
2006.00
2011.00
2008.00
2001.00
1989.00
1989.00
1985.00
1983.00
1979.00
1973.00
1968.00
1962.00
1947.00
1947.00
1936.00
1930.00
1936.00
1936.00
1937.00
1945.00
1947.00
1947.00
1947.00
1943.00
1938.00
1936.00
1934.00
1934.00
1925.00
1928.00
1923.00
1921.00
1922.00
1926.00
1923.00
1921.00
1918.00
1915.00
1920.00
1927.00
1935.00
1938.00
1936.00
1954.00
1945.00
1953.00
1952.00
1939.00
1927.00
1922.00
1922.00
1923.00
1925.00
1931.00
1929.00
1919.00
1922.00
1919.00
1917.00
1918.00
1915.00
1917.00
1922.00
1921.00
1919.00
1918.00
1906.00
1903.00
1901.00
1903.00
1906.00
1911.00
1917.00
1920.00
1923.00
1925.00
1934.00
1935.00
1939.00
1934.00
1926.00
1923.00
1925.00
1942.00
1982.00
2013.00
2038.00
2089.00
2151.00
2188.00
2231.00
2265.00
2320.00
2371.00
2416.00
2465.00
2502.00
2541.00
2595.00
2630.00
2637.00
2635.00
2659.00
2652.00
2679.00
2704.00
2733.00
2746.00
2786.00
2818.00
2839.00
2820.00
2799.00
2789.00
2794.00
2772.00
2718.00
2695.00
2651.00
2623.00
2588.00
2543.00
2522.00
2485.00
2450.00
2393.00
2352.00
2315.00
2295.00
2261.00
2231.00
2215.00
2183.00
2167.00
2172.00
2163.00
2150.00
2142.00
2115.00
2093.00
2079.00
2086.00
2077.00
2075.00
2067.00
2068.00
2039.00
2036.00
2045.00
2057.00
2065.00
2059.00
2062.00
2029.00
2045.00
2045.00
2058.00
2038.00
2055.00
2064.00
2047.00
2018.00
2035.00
2032.00
2026.00
2013.00
2032.00
2026.00
2020.00
2014.00
2006.00
1990.00
1981.00
1984.00
1974.00
1980.00
1981.00
1970.00
1952.00
1914.00
1945.00
1942.00
1950.00
1943.00
1936.00
1939.00
1929.00
1936.00
1934.00
1929.00
1920.00
1913.00
1913.00
1936.00
1935.00
1933.00
1943.00
1938.00
1926.00
1939.00
1963.00
1978.00
1979.00
1975.00
1971.00
1958.00
1968.00
1975.00
1972.00
1929.00
1951.00
1954.00
1952.00
1941.00
1920.00
1920.00
1906.00
1903.00
1904.00
1927.00
1935.00
1935.00
1938.00
1943.00
1941.00
1936.00
1935.00
1945.00
1917.00
1933.00
1936.00
1945.00
1949.00
1946.00
1936.00
1939.00
1947.00
1938.00
1939.00
1929.00
1923.00
1925.00
1931.00
1933.00
1936.00
1957.00
1968.00
1974.00
1971.00
1943.00
1930.00
1905.00
1875.00
1855.00
1819.00
1797.00
1771.00
1739.00
1697.00
1663.00
1619.00
1584.00
1520.00
1472.00
1409.00
1348.00
1295.00
1231.00
1179.00
1123.00
1073.00
1008.00
949.00
896.00
848.00
799.00
750.00
692.00
670.00
650.00
624.00
594.00
579.00
560.00
553.00
558.00
568.00
569.00
583.00
594.00
623.00
650.00
685.00
722.00
773.00
810.00
838.00
894.00
958.00
1013.00
1069.00
1123.00
1175.00
1232.00
1286.00
1327.00
1382.00
1421.00
1456.00
1488.00
1522.00
1563.00
1594.00
1626.00
1650.00
1672.00
1691.00
1715.00
1741.00
1755.00
1769.00
1804.00
1813.00
1825.00
1831.00
1838.00
1840.00
1849.00
1854.00
1840.00
1863.00
1869.00
1870.00
1870.00
1867.00
1873.00
1878.00
1876.00
1897.00
1904.00
1904.00
1899.00
1893.00
1898.00
1897.00
1904.00
1927.00
1959.00
