1936.00
1937.00
1936.00
1937.00
1933.00
1937.00
1936.00
1936.00
1934.00
1936.00
1930.00
1930.00
1930.00
1931.00
1925.00
1914.00
1915.00
1919.00
1921.00
1925.00
1931.00
1931.00
1934.00
1935.00
1935.00
1936.00
1936.00
1935.00
1936.00
1926.00
1911.00
1916.00
1934.00
1951.00
1968.00
1989.00
2015.00
2064.00
2098.00
2144.00
2185.00
2219.00
2231.00
2249.00
2256.00
2256.00
2256.00
2254.00
2240.00
2229.00
2218.00
2201.00
2192.00
2185.00
2173.00
2165.00
2155.00
2135.00
2122.00
2111.00
2096.00
2090.00
2082.00
2071.00
2058.00
2045.00
2032.00
2022.00
2004.00
2000.00
1990.00
1981.00
1977.00
1963.00
1951.00
1939.00
1936.00
1940.00
1935.00
1936.00
1935.00
1927.00
1936.00
1936.00
1938.00
1941.00
1939.00
1936.00
1931.00
1925.00
1915.00
1915.00
1910.00
1906.00
1905.00
1903.00
1886.00
1899.00
1903.00
1902.00
1904.00
1904.00
1907.00
1904.00
1904.00
1904.00
1906.00
1902.00
1908.00
1909.00
1904.00
1909.00
1904.00
1906.00
1913.00
1917.00
1930.00
1922.00
1933.00
1933.00
1937.00
1938.00
1938.00
1942.00
1949.00
1950.00
1946.00
1943.00
1937.00
1935.00
1936.00
1936.00
1927.00
1926.00
1929.00
1929.00
1924.00
1926.00
1929.00
1936.00
1939.00
1930.00
1928.00
1930.00
1931.00
1933.00
1936.00
1933.00
1933.00
1929.00
1926.00
1923.00
1922.00
1913.00
1906.00
1899.00
1894.00
1891.00
1888.00
1904.00
1903.00
1909.00
1905.00
1894.00
1889.00
1892.00
1892.00
1897.00
1889.00
1888.00
1886.00
1879.00
1886.00
1883.00
1890.00
1895.00
1904.00
1902.00
1904.00
1914.00
1913.00
1918.00
1927.00
1933.00
1936.00
1938.00
1931.00
1935.00
1923.00
1925.00
1919.00
1908.00
1904.00
1899.00
1895.00
1895.00
1893.00
1895.00
1901.00
1898.00
1902.00
1904.00
1909.00
1904.00
1904.00
1917.00
1915.00
1919.00
1919.00
1919.00
1918.00
1921.00
1915.00
1913.00
1910.00
1920.00
1916.00
1922.00
1930.00
1925.00
1922.00
1930.00
1929.00
1933.00
1927.00
1926.00
1936.00
1936.00
1939.00
1947.00
1942.00
1947.00
1943.00
1947.00
1958.00
1953.00
1946.00
1936.00
1929.00
1936.00
1936.00
1933.00
1935.00
1936.00
1935.00
1933.00
1924.00
1921.00
1920.00
1915.00
1913.00
1917.00
1911.00
1910.00
1910.00
1907.00
1904.00
1899.00
1899.00
1889.00
1904.00
1913.00
1913.00
1919.00
1920.00
1913.00
1907.00
1904.00
1894.00
1895.00
1887.00
1885.00
1886.00
1882.00
1879.00
1881.00
1884.00
1882.00
1878.00
1874.00
1871.00
1872.00
1872.00
1874.00
1877.00
1874.00
1874.00
1872.00
1861.00
1858.00
1856.00
1856.00
1856.00
1861.00
1863.00
1861.00
1851.00
1849.00
1840.00
1831.00
1840.00
1839.00
1828.00
1815.00
1819.00
1797.00
1805.00
1801.00
1789.00
1803.00
1800.00
1807.00
1806.00
1802.00
1814.00
1819.00
1829.00
1821.00
1830.00
1830.00
1836.00
1840.00
1838.00
1831.00
1829.00
1838.00
1824.00
1812.00
1805.00
1792.00
1778.00
1766.00
1762.00
1762.00
1760.00
1769.00
1747.00
1769.00
1779.00
1795.00
1797.00
1806.00
1804.00
1808.00
1821.00
1825.00
1824.00
1843.00
1853.00
1854.00
1850.00
1842.00
1855.00
1878.00
1895.00
1904.00
1896.00
1887.00
1878.00
1872.00
1873.00
1874.00
1903.00
1923.00
1911.00
1918.00
1887.00
1904.00
1895.00
1904.00
1918.00
1893.00
1906.00
1909.00
1911.00
1921.00
1917.00
1930.00
1936.00
1931.00
1933.00
1943.00
1942.00
1949.00
1946.00
1955.00
1975.00
1969.00
1954.00
1947.00
1939.00
1946.00
1920.00
1910.00
1934.00
1951.00
1963.00
1963.00
1959.00
1950.00
1958.00
1951.00
1958.00
1947.00
1947.00
1941.00
1933.00
1926.00
1921.00
1927.00
1926.00
1927.00
1943.00
1937.00
1942.00
1947.00
1939.00
1943.00
1934.00
1920.00
1923.00
1925.00
1911.00
1894.00
1898.00
1905.00
1927.00
1929.00
1922.00
1914.00
1906.00
1917.00
1932.00
1927.00
1929.00
1920.00
1954.00
1983.00
2014.00
2041.00
2067.00
2109.00
2135.00
2190.00
2234.00
2274.00
2304.00
2338.00
2397.00
2439.00
2464.00
2497.00
2551.00
2597.00
2623.00
2645.00
2672.00
2688.00
2715.00
2741.00
2759.00
2770.00
2768.00
2768.00
2751.00
2748.00
2741.00
2743.00
2747.00
2745.00
2746.00
2733.00
2720.00
2686.00
2688.00
2671.00
2651.00
2606.00
2602.00
2582.00
2544.00
2529.00
2507.00
2477.00
2445.00
2422.00
2409.00
2389.00
2368.00
2337.00
2319.00
2303.00
2275.00
2261.00
2255.00
2238.00
2224.00
2211.00
2202.00
2205.00
2194.00
2174.00
2153.00
2151.00
2131.00
2129.00
2122.00
2104.00
2084.00
2064.00
2045.00
2038.00
2030.00
2023.00
2017.00
1986.00
1991.00
1990.00
1968.00
1959.00
1956.00
1942.00
1922.00
1922.00
1916.00
1915.00
1915.00
1911.00
1919.00
1904.00
1924.00
1923.00
1920.00
1919.00
1914.00
1921.00
1926.00
1922.00
1916.00
1916.00
1910.00
1906.00
1911.00
1909.00
1904.00
1914.00
1906.00
1907.00
1890.00
1895.00
1897.00
1899.00
1897.00
1910.00
1903.00
1901.00
1902.00
1892.00
1899.00
1904.00
1903.00
1889.00
1894.00
1898.00
1909.00
1914.00
1913.00
1919.00
1919.00
1926.00
1918.00
1924.00
1922.00
1925.00
1918.00
1917.00
1917.00
1918.00
1923.00
1925.00
1929.00
1918.00
1910.00
1904.00
1914.00
1909.00
1921.00
1915.00
1917.00
1915.00
1914.00
1939.00
1957.00
1965.00
1961.00
1964.00
1968.00
1963.00
1964.00
1962.00
1951.00
1943.00
1957.00
1973.00
1989.00
1973.00
1945.00
1916.00
1883.00
1841.00
1797.00
1744.00
1691.00
1638.00
1586.00
1527.00
1473.00
1420.00
1373.00
1313.00
1251.00
1193.00
1138.00
1098.00
1053.00
997.00
947.00
909.00
868.00
833.00
798.00
752.00
721.00
688.00
674.00
685.00
641.00
622.00
619.00
621.00
592.00
577.00
577.00
590.00
590.00
584.00
596.00
609.00
617.00
624.00
656.00
688.00
705.00
732.00
768.00
797.00
802.00
810.00
823.00
849.00
889.00
914.00
930.00
949.00
980.00
994.00
1018.00
1055.00
1081.00
1102.00
1113.00
1128.00
1162.00
1182.00
1207.00
1232.00
1264.00
1296.00
1314.00
1343.00
1360.00
1384.00
1402.00
1424.00
1454.00
1475.00
1495.00
1520.00
1535.00
1556.00
1581.00
1600.00
1632.00
1632.00
1648.00
1663.00
1680.00
1693.00
1705.00
1715.00
1731.00
1749.00
1761.00
1771.00
1781.00
1789.00
1807.00
1805.00
1808.00
1821.00
1827.00
1811.00
1824.00
1823.00
1827.00
1840.00
1840.00
1853.00
1858.00
1856.00
1865.00
1867.00
1871.00
1872.00
1907.00
1874.00
1872.00
1865.00
1868.00
1882.00
1872.00
1873.00
1871.00
1875.00
1884.00
1890.00
1885.00
1878.00
1877.00
1881.00
1887.00
1893.00
1903.00
1903.00
1903.00
1904.00
1904.00
1905.00
1904.00
1911.00
1911.00
1904.00
1901.00
1907.00
1921.00
1910.00
1920.00
1927.00
1929.00
1933.00
1936.00
1928.00
1933.00
1929.00
1922.00
1923.00
1925.00
1937.00
1933.00
1927.00
1932.00
1936.00
1936.00
1939.00
1945.00
1956.00
1953.00
1946.00
1936.00
1933.00
1927.00
1908.00
1904.00
1888.00
1884.00
1890.00
1902.00
1904.00
1913.00
1915.00
1907.00
1903.00
1903.00
1903.00
1914.00
1909.00
1904.00
1903.00
1906.00
1904.00
1902.00
1900.00
1901.00
1895.00
1903.00
1901.00
1898.00
1901.00
1891.00
1885.00
1879.00
1876.00
1879.00
1874.00
1881.00
1875.00
1871.00
1872.00
1888.00
1875.00
1877.00
1875.00
1867.00
1867.00
1872.00
1867.00
1879.00
1886.00
1885.00
1879.00
1886.00
1891.00
1897.00
1906.00
1917.00
1920.00
1923.00
1915.00
1904.00
1903.00
1875.00
1865.00
1851.00
1838.00
1826.00
1813.00
1807.00
1803.00
1808.00
1808.00
1808.00
1806.00
1803.00
1810.00
1812.00
1822.00
1836.00
1841.00
1829.00
1840.00
1840.00
1853.00
1857.00
1859.00
1858.00
1866.00
1871.00
1872.00
1878.00
1882.00
1885.00
1882.00
1874.00
1870.00
1875.00
1877.00
1873.00
1877.00
1875.00
1882.00
1885.00
1895.00
1902.00
1904.00
1907.00
1907.00
1909.00
1911.00
1919.00
1922.00
1927.00
1935.00
1936.00
1940.00
1936.00
1939.00
1941.00
1942.00
1941.00
1949.00
1947.00
1947.00
1945.00
1947.00
1952.00
1951.00
1937.00
1935.00
1940.00
1927.00
1926.00
1920.00
1942.00
1971.00
1991.00
2000.00
2023.00
2033.00
2038.00
2045.00
2055.00
2053.00
2041.00
2029.00
2038.00
2045.00
2054.00
2045.00
2043.00
2039.00
2039.00
2032.00
2032.00
2031.00
2027.00
2027.00
2026.00
2016.00
2006.00
2000.00
1999.00
1999.00
2000.00
2000.00
2000.00
1997.00
2000.00
1986.00
1995.00
1993.00
1989.00
1988.00
1989.00
1984.00
1985.00
1984.00
1983.00
1981.00
1977.00
1968.00
1965.00
1955.00
1951.00
1950.00
1943.00
1936.00
1923.00
1909.00
1893.00
1883.00
1903.00
1936.00
1959.00
1991.00
2023.00
2079.00
2135.00
2187.00
2243.00
2299.00
2353.00
2405.00
2455.00
2495.00
2544.00
2593.00
2625.00
2663.00
2704.00
2736.00
2769.00
2796.00
2815.00
2832.00
2842.00
2842.00
2832.00
2820.00
2804.00
2782.00
2752.00
2732.00
2700.00
2662.00
2635.00
2595.00
2550.00
2515.00
2483.00
2455.00
2427.00
2395.00
2367.00
2338.00
2309.00
2288.00
2267.00
2253.00
2224.00
2208.00
2192.00
2175.00
2151.00
2128.00
2107.00
2086.00
2065.00
2047.00
2036.00
2022.00
2004.00
2001.00
1993.00
1998.00
2001.00
1991.00
1969.00
1947.00
1923.00
1902.00
1863.00
1810.00
1765.00
1706.00
1637.00
1577.00
1509.00
1458.00
1405.00
1353.00
1303.00
1264.00
1218.00
1179.00
1145.00
1123.00
1097.00
1079.00
1070.00
1069.00
1069.00
1070.00
1079.00
1102.00
1121.00
1146.00
1168.00
1215.00
1253.00
1289.00
1325.00
1360.00
1403.00
1439.00
1472.00
1506.00
1546.00
1581.00
1607.00
1633.00
1663.00
1679.00
1695.00
1713.00
1727.00
1744.00
1751.00
1763.00
1776.00
1782.00
1785.00
1791.00
1801.00
1813.00
1814.00
1823.00
1837.00
1840.00
1849.00
1847.00
1842.00
1846.00
1853.00
1853.00
1860.00
1872.00
1875.00
1872.00
1867.00
1857.00
1843.00
1821.00
1800.00
1779.00
1763.00
1744.00
1734.00
1727.00
1723.00
1724.00
1726.00
1733.00
1737.00
1744.00
1756.00
1759.00
1773.00
1777.00
1794.00
1805.00
1808.00
1818.00
1824.00
1829.00
1837.00
1842.00
1853.00
1857.00
1863.00
1872.00
1875.00
1885.00
1891.00
1894.00
1901.00
1904.00
1905.00
1907.00
1907.00
1903.00
1903.00
1899.00
1900.00
1904.00
1905.00
1910.00
1914.00
1925.00
1922.00
1918.00
1913.00
1913.00
1906.00
1907.00
1904.00
1905.00
1907.00
1907.00
1910.00
1915.00
1919.00
1915.00
1919.00
1919.00
1913.00
1911.00
1908.00
1927.00
1926.00
1929.00
1924.00
1922.00
1915.00
1922.00
1927.00
1926.00
1934.00
1936.00
1936.00
1936.00
1936.00
1936.00
1936.00
1926.00
1921.00
1921.00
1925.00
1922.00
1925.00
1922.00
1919.00
1915.00
1907.00
1903.00
1903.00
1906.00
1907.00
1906.00
1909.00
1922.00
1924.00
1915.00
1904.00
1888.00
1863.00
1835.00
1808.00
1776.00
1738.00
1703.00
1679.00
1648.00
1622.00
1606.00
1587.00
1577.00
1558.00
1547.00
1535.00
1547.00
1550.00
1557.00
1568.00
1579.00
1585.00
1605.00
1618.00
1627.00
1645.00
1651.00
1670.00
1687.00
1705.00
1719.00
1734.00
1747.00
1773.00
1791.00
1803.00
1815.00
1829.00
1840.00
1841.00
1853.00
1870.00
1875.00
1882.00
1897.00
1903.00
1909.00
1911.00
1911.00
1911.00
1913.00
1917.00
1920.00
1927.00
1931.00
1935.00
1934.00
1933.00
1936.00
1937.00
1937.00
1946.00
1950.00
1955.00
1954.00
1953.00
1952.00
1946.00
1943.00
1942.00
1947.00
1947.00
1946.00
1946.00
1944.00
1940.00
1940.00
1945.00
1947.00
1951.00
1951.00
1948.00
1947.00
1936.00
1937.00
1936.00
1933.00
1935.00
1922.00
1923.00
1926.00
1925.00
1919.00
1921.00
1920.00
1914.00
1910.00
1906.00
1903.00
1900.00
1903.00
1907.00
1911.00
1911.00
1917.00
1915.00
1911.00
1910.00
1911.00
1913.00
1918.00
1919.00
1911.00
1906.00
1906.00
1914.00
1910.00
1925.00
1929.00
1930.00
1930.00
1933.00
1939.00
1946.00
1945.00
1945.00
1946.00
1946.00
1946.00
1943.00
1938.00
1938.00
1941.00
1942.00
1938.00
1936.00
1936.00
1929.00
1925.00
1923.00
1924.00
1922.00
1922.00
1924.00
1927.00
1924.00
1922.00
1918.00
1921.00
1919.00
1923.00
1931.00
1929.00
1930.00
1927.00
1929.00
1925.00
1930.00
1931.00
1925.00
1933.00
1936.00
1934.00
1937.00
1942.00
1946.00
1949.00
1951.00
1947.00
1948.00
1950.00
1957.00
1938.00
1937.00
1936.00
1935.00
1934.00
1933.00
1927.00
1921.00
1915.00
1915.00
1920.00
1926.00
1926.00
1927.00
1930.00
1922.00
1925.00
1921.00
1918.00
1911.00
1919.00
1913.00
1920.00
1927.00
1931.00
1937.00
1943.00
1941.00
1940.00
1941.00
1936.00
1938.00
1929.00
1923.00
1920.00
1915.00
1917.00
1925.00
1925.00
1929.00
1925.00
1923.00
1928.00
1932.00
1930.00
1923.00
1920.00
1910.00
1908.00
1904.00
1906.00
1901.00
1904.00
1909.00
1911.00
1919.00
1917.00
1911.00
1909.00
1910.00
1909.00
1910.00
1906.00
1910.00
1907.00
1907.00
1913.00
1910.00
1910.00
1914.00
1917.00
1917.00
1919.00
1922.00
1926.00
1924.00
1920.00
1925.00
1932.00
1933.00
1932.00
1935.00
1933.00
1934.00
1926.00
1925.00
1931.00
1936.00
1936.00
1942.00
1945.00
1947.00
1950.00
1947.00
1952.00
1953.00
1947.00
1938.00
1925.00
1905.00
1886.00
1870.00
1858.00
1851.00
1845.00
1839.00
1837.00
1834.00
1835.00
1836.00
1849.00
1861.00
1863.00
1865.00
1869.00
1872.00
1878.00
1884.00
1892.00
1887.00
1891.00
1888.00
1887.00
1878.00
1878.00
1880.00
1879.00
1879.00
1877.00
1878.00
1877.00
1873.00
1875.00
1874.00
1872.00
1878.00
1883.00
1891.00
1893.00
1893.00
1897.00
1893.00
1896.00
1899.00
1899.00
1895.00
1900.00
1899.00
1898.00
1897.00
1902.00
1902.00
1898.00
1899.00
1904.00
1904.00
1903.00
1905.00
1900.00
1903.00
1899.00
1899.00
1898.00
1904.00
1904.00
1904.00
1907.00
1909.00
1917.00
1922.00
1923.00
1931.00
1935.00
1931.00
1931.00
1926.00
1923.00
1915.00
1918.00
1919.00
1914.00
1906.00
1904.00
1899.00
1899.00
1895.00
1899.00
1902.00
1903.00
1904.00
1901.00
1900.00
1894.00
1890.00
1893.00
1890.00
1894.00
1895.00
1897.00
1904.00
1909.00
1914.00
1920.00
1923.00
1926.00
1923.00
1922.00
1918.00
1910.00
1914.00
1919.00
1926.00
1925.00
1931.00
1936.00
1936.00
1936.00
1936.00
1931.00
1926.00
1920.00
1918.00
1910.00
1873.00
1854.00
1868.00
1898.00
1919.00
1936.00
1968.00
2009.00
2045.00
2096.00
2149.00
2192.00
2242.00
2304.00
2353.00
2405.00
2461.00
2512.00
2575.00
2633.00
2681.00
2735.00
2789.00
2845.00
2898.00
2944.00
2977.00
3007.00
3044.00
3070.00
3090.00
3110.00
3134.00
3137.00
3138.00
3126.00
3120.00
3109.00
3090.00
3055.00
3014.00
2969.00
2933.00
2881.00
2841.00
2798.00
2751.00
2705.00
2665.00
2619.00
2579.00
2535.00
2499.00
2467.00
2433.00
2398.00
2367.00
2333.00
2299.00
2271.00
2242.00
2222.00
2193.00
2169.00
2149.00
2128.00
2112.00
2097.00
2091.00
2074.00
2067.00
2081.00
2094.00
2113.00
2133.00
2160.00
2191.00
2222.00
2243.00
2256.00
2262.00
2266.00
2258.00
2246.00
2243.00
2235.00
2224.00
2209.00
2194.00
2178.00
2160.00
2158.00
2154.00
2142.00
2127.00
2118.00
2105.00
2094.00
2078.00
2070.00
2064.00
2054.00
2039.00
2032.00
2022.00
2023.00
2014.00
2005.00
1991.00
1999.00
1997.00
1989.00
1973.00
1975.00
1968.00
1969.00
1962.00
1947.00
1948.00
1945.00
1948.00
1941.00
1947.00
1950.00
1947.00
1943.00
1936.00
1929.00
1935.00
1936.00
1929.00
1927.00
1923.00
1923.00
1925.00
1922.00
1933.00
1933.00
1933.00
1936.00
1927.00
1925.00
1922.00
1920.00
1913.00
1919.00
1909.00
1920.00
1915.00
1911.00
1907.00
1911.00
1913.00
1920.00
1919.00
1922.00
1917.00
1909.00
1904.00
1904.00
1907.00
1915.00
1920.00
1920.00
1925.00
1927.00
1923.00
1933.00
1933.00
1931.00
1935.00
1936.00
1936.00
1936.00
1933.00
1929.00
1927.00
1923.00
1920.00
1918.00
1917.00
1913.00
1931.00
1923.00
1934.00
1936.00
1931.00
1935.00
1935.00
1936.00
1937.00
1937.00
1938.00
1936.00
1936.00
1936.00
1934.00
1922.00
1917.00
1917.00
1910.00
1906.00
1907.00
1907.00
1907.00
1905.00
1904.00
1908.00
1904.00
1906.00
1900.00
1901.00
1903.00
1907.00
1911.00
1917.00
1919.00
1927.00
1930.00
1931.00
1933.00
1931.00
1936.00
1934.00
1935.00
1930.00
1934.00
1927.00
1927.00
1922.00
1926.00
1927.00
1933.00
1931.00
1935.00
1933.00
1932.00
1936.00
1938.00
1938.00
1932.00
1929.00
1927.00
1925.00
1926.00
1931.00
1921.00
1923.00
1926.00
1933.00
1927.00
1932.00
1934.00
1936.00
1936.00
1934.00
1933.00
1936.00
1936.00
1936.00
1936.00
1931.00
1920.00
1918.00
1919.00
1921.00
1917.00
1921.00
1919.00
1915.00
1910.00
1905.00
1907.00
1913.00
1919.00
1921.00
1918.00
1914.00
1916.00
1919.00
1920.00
1922.00
1920.00
1923.00
1927.00
1933.00
1936.00
1938.00
1939.00
1942.00
1938.00
1930.00
1930.00
1929.00
1920.00
1918.00
1914.00
1911.00
1909.00
1918.00
1911.00
1919.00
1916.00
1917.00
1909.00
1904.00
1905.00
1906.00
1907.00
1909.00
1911.00
1910.00
1909.00
1910.00
1911.00
1906.00
1906.00
1907.00
1911.00
1907.00
1914.00
1915.00
1917.00
1918.00
1911.00
1910.00
1907.00
1911.00
1908.00
1905.00
1915.00
1917.00
1915.00
1915.00
1917.00
1921.00
1924.00
1929.00
1923.00
1920.00
1917.00
1916.00
1922.00
1922.00
1926.00
1936.00
1936.00
1937.00
1937.00
1946.00
1943.00
1934.00
1930.00
1920.00
1923.00
1919.00
1918.00
1920.00
1920.00
1921.00
1922.00
1926.00
1926.00
1932.00
1928.00
1927.00
1932.00
1919.00
1915.00
1914.00
1911.00
1905.00
1903.00
1903.00
1899.00
1893.00
1889.00
1888.00
1891.00
1879.00
1878.00
1884.00
1887.00
1894.00
1891.00
1887.00
1895.00
1911.00
1943.00
1962.00
1973.00
2015.00
2068.00
2113.00
2157.00
2207.00
2249.00
2295.00
2337.00
2374.00
2416.00
2457.00
2497.00
2531.00
2574.00
2607.00
2635.00
2659.00
2676.00
2697.00
2704.00
2720.00
2722.00
2730.00
2734.00
2726.00
2721.00
2710.00
2695.00
2676.00
2658.00
2642.00
2624.00
2608.00
2583.00
2550.00
2533.00
2506.00
2487.00
2472.00
2458.00
2444.00
2434.00
2418.00
2391.00
2384.00
2368.00
2346.00
2336.00
2318.00
2302.00
2281.00
2265.00
2256.00
2230.00
2218.00
2202.00
2192.00
2184.00
2173.00
2162.00
2145.00
2138.00
2110.00
2086.00
2071.00
2064.00
2046.00
2042.00
2030.00
2020.00
2011.00
2001.00
1988.00
1970.00
1968.00
1958.00
1950.00
1948.00
1936.00
1931.00
1919.00
1905.00
1921.00
1928.00
1930.00
1935.00
1927.00
1929.00
1929.00
1922.00
1919.00
1907.00
1907.00
1904.00
1904.00
1904.00
1903.00
1902.00
1899.00
1893.00
1891.00
1893.00
1892.00
1893.00
1901.00
1905.00
1907.00
1905.00
1914.00
1936.00
1959.00
1979.00
2000.00
2015.00
2029.00
2039.00
2059.00
2067.00
2064.00
2064.00
2067.00
2077.00
2075.00
2071.00
2071.00
2069.00
2064.00
2047.00
2047.00
2042.00
2032.00
2023.00
2015.00
2009.00
1997.00
1986.00
1986.00
1979.00
1969.00
1966.00
1967.00
1963.00
1965.00
1962.00
1966.00
1973.00
1970.00
1968.00
1968.00
1968.00
1982.00
1980.00
1969.00
1962.00
1952.00
1943.00
1936.00
1926.00
1914.00
1899.00
1903.00
1901.00
1898.00
1898.00
1889.00
1895.00
1898.00
1895.00
1897.00
1901.00
1904.00
1904.00
1904.00
1909.00
1907.00
1904.00
1907.00
1907.00
1909.00
1905.00
1904.00
1907.00
1906.00
1909.00
1908.00
1916.00
1916.00
1918.00
1913.00
1910.00
1904.00
1913.00
1910.00
1920.00
1926.00
1930.00
1926.00
1931.00
1917.00
1915.00
1918.00
1917.00
1913.00
1915.00
1914.00
1919.00
1920.00
1913.00
1933.00
1918.00
1917.00
1920.00
1914.00
1914.00
1917.00
1911.00
1915.00
1917.00
1921.00
1918.00
1919.00
1920.00
1918.00
1920.00
1921.00
1920.00
1917.00
1922.00
1923.00
1922.00
1923.00
1915.00
1913.00
1918.00
1917.00
1919.00
1906.00
1909.00
1911.00
1918.00
1930.00
1936.00
1931.00
1917.00
1911.00
1914.00
1913.00
1914.00
1916.00
1920.00
1915.00
1917.00
1920.00
1915.00
1910.00
1907.00
1914.00
1916.00
1921.00
1927.00
1927.00
1926.00
1921.00
1925.00
1924.00
1922.00
1923.00
1931.00
1930.00
1932.00
1930.00
1926.00
1923.00
1922.00
1922.00
1923.00
1917.00
1921.00
1914.00
1909.00
1910.00
1906.00
1907.00
1906.00
1905.00
1905.00
1906.00
1906.00
1915.00
1902.00
1904.00
1902.00
1904.00
1909.00
1910.00
1914.00
1920.00
1927.00
1927.00
1920.00
1908.00
1898.00
1895.00
1899.00
1903.00
1904.00
1905.00
1907.00
1905.00
1904.00
1906.00
1904.00
1904.00
1907.00
1904.00
1899.00
1904.00
1905.00
1905.00
1909.00
1906.00
1905.00
1904.00
1904.00
1911.00
1911.00
1916.00
1907.00
1918.00
1915.00
1912.00
1904.00
1908.00
1906.00
1909.00
1921.00
1923.00
1930.00
1935.00
1935.00
1934.00
1933.00
1934.00
1936.00
1935.00
1935.00
1934.00
1929.00
1926.00
1923.00
1921.00
1919.00
1916.00
1915.00
1914.00
1914.00
1911.00
1911.00
1907.00
1907.00
1901.00
1900.00
1899.00
1898.00
1900.00
1904.00
1906.00
1906.00
1901.00
1900.00
1903.00
1904.00
1907.00
1911.00
1904.00
1902.00
1905.00
1899.00
1895.00
1898.00
1891.00
1890.00
1895.00
1899.00
1899.00
1898.00
1904.00
1903.00
1903.00
1903.00
1902.00
1904.00
1904.00
1903.00
1904.00
1910.00
1915.00
1918.00
1914.00
1915.00
1909.00
1914.00
1918.00
1925.00
1922.00
1919.00
1922.00
1916.00
1919.00
1919.00
1919.00
1915.00
1907.00
1904.00
1903.00
1906.00
1907.00
1906.00
1912.00
1904.00
1905.00
1911.00
1909.00
1909.00
1906.00
1911.00
1910.00
1914.00
1919.00
1920.00
1925.00
1934.00
1936.00
1936.00
1936.00
1936.00
1935.00
1925.00
1922.00
1921.00
1918.00
1919.00
1915.00
1919.00
1911.00
1911.00
1905.00
1904.00
1904.00
1908.00
1904.00
1902.00
1904.00
1904.00
1906.00
1904.00
1906.00
1915.00
1911.00
1913.00
1910.00
1910.00
1910.00
1909.00
1908.00
1915.00
1917.00
1918.00
1920.00
1924.00
1927.00
1924.00
1932.00
1925.00
1926.00
1922.00
1918.00
1920.00
1929.00
1931.00
1924.00
1923.00
1931.00
1925.00
1921.00
1920.00
1927.00
1939.00
1965.00
1973.00
1949.00
1923.00
1904.00
1872.00
1829.00
1796.00
1751.00
1713.00
1674.00
1631.00
1584.00
1545.00
1497.00
1447.00
1406.00
1349.00
1296.00
1249.00
1200.00
1157.00
1123.00
1085.00
1051.00
1020.00
995.00
968.00
946.00
929.00
919.00
915.00
929.00
945.00
972.00
995.00
1032.00
1069.00
1104.00
1137.00
1181.00
1220.00
1263.00
1299.00
1342.00
1385.00
1424.00
1463.00
1497.00
1529.00
1566.00
1593.00
1616.00
1641.00
1658.00
1680.00
1699.00
1711.00
1723.00
1742.00
1767.00
1762.00
1759.00
1749.00
1744.00
1741.00
1729.00
1726.00
1735.00
1738.00
1744.00
1754.00
1760.00
1769.00
1776.00
1783.00
1791.00
1801.00
1808.00
1815.00
1831.00
1834.00
1836.00
1841.00
1849.00
1855.00
1867.00
1867.00
1871.00
1879.00
1882.00
1888.00
1893.00
1898.00
1899.00
1901.00
1903.00
1903.00
1908.00
1909.00
1914.00
1906.00
1904.00
1904.00
1905.00
1908.00
1905.00
1909.00
1914.00
1918.00
1914.00
1917.00
1919.00
1922.00
1925.00
1919.00
1918.00
1919.00
1913.00
1907.00
1904.00
1904.00
1906.00
1905.00
1906.00
1898.00
1897.00
1893.00
1894.00
1894.00
1894.00
1895.00
1897.00
1899.00
1901.00
1904.00
1904.00
1911.00
1915.00
1917.00
1920.00
1919.00
1925.00
1923.00
1927.00
1931.00
1927.00
1926.00
1930.00
1931.00
1933.00
1931.00
1936.00
1937.00
1936.00
1937.00
1939.00
1936.00
1934.00
1929.00
1936.00
1936.00
1941.00
1949.00
1950.00
1947.00
1949.00
1950.00
1949.00
1949.00
1940.00
1937.00
1938.00
1936.00
1935.00
1926.00
1930.00
1926.00
1927.00
1935.00
1927.00
1929.00
1920.00
1927.00
1925.00
1919.00
1919.00
1910.00
1912.00
1913.00
1915.00
1917.00
1915.00
1926.00
1931.00
1934.00
1936.00
1936.00
1927.00
1936.00
1938.00
1936.00
1936.00
1937.00
1925.00
1933.00
1925.00
1923.00
1931.00
1934.00
1944.00
1941.00
1948.00
1939.00
1939.00
1947.00
1945.00
1949.00
1945.00
1943.00
1939.00
1938.00
1934.00
1934.00
1930.00
1933.00
1934.00
1937.00
1936.00
1937.00
1939.00
1937.00
1936.00
1936.00
1936.00
1937.00
1933.00
1934.00
1935.00
1936.00
1936.00
1936.00
1936.00
1945.00
1943.00
1942.00
1941.00
1943.00
1945.00
1953.00
1953.00
1950.00
1946.00
1945.00
1947.00
1950.00
1950.00
1951.00
1945.00
1942.00
1940.00
1937.00
1937.00
1937.00
1936.00
1933.00
1935.00
1936.00
1937.00
1942.00
1946.00
1948.00
1944.00
1937.00
1936.00
1936.00
1936.00
1929.00
1930.00
1925.00
1926.00
1930.00
1929.00
1930.00
1929.00
1933.00
1931.00
1936.00
1935.00
1936.00
1936.00
1936.00
1935.00
1934.00
1930.00
1919.00
1931.00
1927.00
1936.00
1933.00
1932.00
1929.00
1931.00
1934.00
1936.00
1935.00
1936.00
1940.00
1938.00
1936.00
1939.00
1945.00
1927.00
1910.00
1889.00
1855.00
1814.00
1769.00
1722.00
1663.00
1602.00
1547.00
1478.00
1427.00
1373.00
1318.00
1266.00
1207.00
1155.00
1103.00
1059.00
1011.00
978.00
944.00
928.00
902.00
883.00
870.00
861.00
853.00
855.00
858.00
867.00
879.00
891.00
907.00
926.00
943.00
950.00
966.00
982.00
1008.00
1023.00
1047.00
1070.00
1089.00
1107.00
1126.00
1159.00
1178.00
1221.00
1245.00
1274.00
1290.00
1328.00
1360.00
1386.00
1418.00
1441.00
1453.00
1488.00
1505.00
1531.00
1555.00
1580.00
1598.00
1610.00
1625.00
1642.00
1669.00
1680.00
1696.00
1703.00
1712.00
1739.00
1758.00
1771.00
1787.00
1798.00
1811.00
1827.00
1855.00
1851.00
1863.00
1875.00
1881.00
1904.00
1904.00
1910.00
1925.00
1929.00
1930.00
1929.00
1935.00
1942.00
1933.00
1918.00
1930.00
1934.00
1949.00
1937.00
1936.00
1942.00
1969.00
1966.00
1955.00
1968.00
1986.00
1994.00
2000.00
1986.00
1993.00
1987.00
1984.00
1977.00
1969.00
1968.00
1968.00
1975.00
1983.00
1981.00
1982.00
1976.00
1968.00
1959.00
1961.00
1968.00
1983.00
1967.00
1967.00
1978.00
1979.00
1984.00
1994.00
2003.00
1997.00
1986.00
1970.00
1963.00
1958.00
1956.00
1957.00
1949.00
1943.00
1937.00
1934.00
1931.00
1926.00
1932.00
1919.00
1921.00
1926.00
1920.00
1919.00
1918.00
1915.00
1911.00
1915.00
1911.00
1910.00
1909.00
1911.00
1915.00
1916.00
1918.00
1925.00
1925.00
1926.00
1936.00
1934.00
1940.00
1936.00
1936.00
1937.00
1935.00
1932.00
1917.00
1910.00
1904.00
1902.00
1895.00
1895.00
1895.00
1898.00
1893.00
1895.00
1903.00
1909.00
1907.00
1906.00
1906.00
1904.00
1906.00
1907.00
1910.00
1910.00
1911.00
1913.00
1920.00
1918.00
1911.00
1910.00
1908.00
1904.00
1903.00
1905.00
1907.00
1912.00
1911.00
1918.00
1915.00
1919.00
1918.00
1919.00
1914.00
1910.00
1914.00
1918.00
1925.00
1927.00
1933.00
1927.00
1913.00
1927.00
1921.00
1922.00
1926.00
1936.00
1936.00
1933.00
1929.00
1925.00
1925.00
1921.00
1920.00
1921.00
1923.00
1936.00
1931.00
1932.00
1930.00
1931.00
1926.00
1920.00
1920.00
1914.00
1918.00
1902.00
1899.00
1899.00
1891.00
1894.00
1888.00
1895.00
1894.00
1899.00
1891.00
1894.00
1891.00
1892.00
1894.00
1898.00
1904.00
1904.00
1909.00
1907.00
1904.00
1903.00
1894.00
1897.00
1898.00
1904.00
1905.00
1911.00
1909.00
1910.00
1906.00
1904.00
1914.00
1913.00
1913.00
1904.00
1904.00
1904.00
1904.00
1905.00
1907.00
1905.00
1911.00
1919.00
1917.00
1919.00
1921.00
1908.00
1930.00
1930.00
1933.00
1934.00
1930.00
1916.00
1904.00
1920.00
1949.00
1971.00
1997.00
2012.00
2035.00
2060.00
2075.00
2085.00
2095.00
2096.00
2085.00
2080.00
2070.00
2064.00
2057.00
2031.00
2043.00
2043.00
2037.00
2035.00
2034.00
2033.00
2027.00
2021.00
2005.00
2000.00
1995.00
1993.00
1991.00
1986.00
1982.00
1982.00
1975.00
1971.00
1967.00
1955.00
1954.00
1941.00
1934.00
1951.00
1923.00
1920.00
1920.00
1917.00
1915.00
1911.00
1920.00
1921.00
1924.00
1933.00
1931.00
1936.00
1936.00
1935.00
1939.00
1939.00
1941.00
1947.00
1947.00
1954.00
1953.00
1957.00
1955.00
1947.00
1947.00
1948.00
1945.00
1946.00
1943.00
1942.00
1942.00
1938.00
1935.00
1936.00
1930.00
1935.00
1936.00
1936.00
1933.00
1927.00
1927.00
1925.00
1925.00
1927.00
1922.00
1922.00
1922.00
1922.00
1922.00
1921.00
1919.00
1921.00
1922.00
1930.00
1931.00
1930.00
1927.00
1921.00
1919.00
1918.00
1920.00
1919.00
1923.00
1933.00
1936.00
1936.00
1937.00
1942.00
1936.00
1936.00
1945.00
1944.00
1947.00
1944.00
1937.00
1931.00
1927.00
1931.00
1936.00
1937.00
1941.00
1943.00
1937.00
1936.00
1931.00
1930.00
1932.00
1936.00
1937.00
1941.00
1942.00
1943.00
1946.00
1949.00
1945.00
1946.00
1946.00
1949.00
1949.00
1946.00
1943.00
1949.00
1949.00
1953.00
1949.00
1951.00
1950.00
1949.00
1943.00
1942.00
1939.00
1936.00
1936.00
1929.00
1922.00
1924.00
1927.00
1927.00
1925.00
1924.00
1925.00
1931.00
1935.00
1935.00
1937.00
1937.00
1935.00
1931.00
1926.00
1922.00
1921.00
1920.00
1921.00
1921.00
1921.00
1920.00
1920.00
1920.00
1929.00
1934.00
1938.00
1937.00
1939.00
1943.00
1940.00
1941.00
1941.00
1941.00
1937.00
1936.00
1933.00
1933.00
1930.00
1927.00
1934.00
1927.00
1909.00
1897.00
1918.00
1942.00
1962.00
1988.00
2006.00
2032.00
2070.00
2107.00
2141.00
2187.00
2229.00
2273.00
2326.00
2381.00
2433.00
2487.00
2539.00
2592.00
2640.00
2692.00
2733.00
2766.00
2799.00
2825.00
2853.00
2881.00
2901.00
2918.00
2928.00
2942.00
2953.00
2937.00
2939.00
2929.00
2912.00
2893.00
2877.00
2863.00
2832.00
2806.00
2779.00
2751.00
2712.00
2673.00
2637.00
2603.00
2554.00
2512.00
2487.00
2450.00
2423.00
2399.00
2354.00
2347.00
2320.00
2291.00
2268.00
2243.00
2223.00
2199.00
2178.00
2157.00
2135.00
2115.00
2102.00
2090.00
2079.00
2064.00
2042.00
2035.00
2027.00
2015.00
2000.00
1989.00
1984.00
1996.00
2011.00
2020.00
2035.00
2059.00
2070.00
2071.00
2068.00
2069.00
2065.00
2071.00
2062.00
2055.00
2046.00
2034.00
2031.00
2020.00
2016.00
2005.00
2003.00
1998.00
1987.00
1984.00
1981.00
1975.00
1970.00
1976.00
1969.00
1968.00
1968.00
1968.00
1968.00
1967.00
1959.00
1957.00
1955.00
1963.00
1966.00
1968.00
1967.00
1968.00
1968.00
1961.00
1951.00
1949.00
1945.00
1947.00
1941.00
1933.00
1933.00
1931.00
1929.00
1929.00
1926.00
1928.00
1930.00
1924.00
1921.00
1919.00
1922.00
1914.00
1919.00
1920.00
1923.00
1920.00
1923.00
1926.00
1926.00
1920.00
1919.00
1923.00
1930.00
1923.00
1929.00
1927.00
1921.00
1919.00
1928.00
1925.00
1930.00
1927.00
1924.00
1926.00
1922.00
1925.00
1925.00
1925.00
1925.00
1929.00
1927.00
1930.00
1931.00
1936.00
1938.00
1938.00
1933.00
1931.00
1926.00
1927.00
1929.00
1934.00
1940.00
1946.00
1949.00
1951.00
1951.00
1951.00
1955.00
1957.00
1958.00
1957.00
1957.00
1955.00
1960.00
1952.00
1943.00
1936.00
1923.00
1914.00
1909.00
1905.00
1911.00
1915.00
1914.00
1920.00
1926.00
1931.00
1934.00
1936.00
1940.00
1943.00
1950.00
1957.00
1956.00
1957.00
1954.00
1968.00
1958.00
1962.00
1958.00
1955.00
1955.00
1945.00
1943.00
1938.00
1938.00
1939.00
1943.00
1942.00
1946.00
1943.00
1946.00
1945.00
1941.00
1944.00
1936.00
1936.00
1936.00
1935.00
1936.00
1940.00
1939.00
1942.00
1939.00
1950.00
1943.00
1940.00
1940.00
1941.00
1945.00
1952.00
1957.00
1954.00
1959.00
1959.00
1955.00
1952.00
1949.00
1943.00
1938.00
1935.00
1928.00
1926.00
1929.00
1929.00
1930.00
1926.00
1929.00
1935.00
1936.00
1936.00
1936.00
1936.00
1936.00
1938.00
1938.00
1936.00
1934.00
1921.00
1918.00
1912.00
1909.00
1904.00
1904.00
1901.00
1893.00
1899.00
1899.00
1904.00
1904.00
1903.00
1904.00
1899.00
1902.00
1906.00
1908.00
1904.00
1907.00
1907.00
1907.00
1904.00
1899.00
1888.00
1889.00
1882.00
1878.00
1881.00
1885.00
1885.00
1893.00
1904.00
1906.00
1917.00
1926.00
1933.00
1935.00
1942.00
1947.00
1951.00
1947.00
1938.00
1936.00
1936.00
1921.00
1925.00
1926.00
1925.00
1921.00
1919.00
1921.00
1920.00
1929.00
1927.00
1934.00
1934.00
1936.00
1941.00
1943.00
1941.00
1964.00
1942.00
1943.00
1936.00
1935.00
1933.00
1931.00
1921.00
1925.00
1919.00
1910.00
1909.00
1913.00
1917.00
1922.00
1924.00
1937.00
1931.00
1933.00
1936.00
1930.00
1927.00
1922.00
1924.00
1920.00
1914.00
1909.00
1905.00
1911.00
1907.00
1905.00
1904.00
1904.00
1890.00
1901.00
1907.00
1917.00
1921.00
1921.00
1926.00
1923.00
1921.00
1921.00
1923.00
1926.00
1927.00
1932.00
1934.00
1925.00
1933.00
1934.00
1931.00
1930.00
1935.00
1932.00
1937.00
1936.00
1936.00
1935.00
1929.00
1932.00
1927.00
1936.00
1936.00
1937.00
1938.00
1937.00
1936.00
1936.00
1936.00
1930.00
1930.00
1929.00
1935.00
1934.00
1936.00
1936.00
1935.00
1937.00
1949.00
1947.00
1955.00
1951.00
1950.00
1946.00
1940.00
1946.00
1943.00
1947.00
1951.00
1954.00
1957.00
1954.00
1954.00
1955.00
1957.00
1959.00
1958.00
1950.00
1946.00
1951.00
1948.00
1936.00
1936.00
1936.00
1933.00
1919.00
1906.00
1923.00
1934.00
1957.00
1978.00
2011.00
2047.00
2090.00
2126.00
2167.00
2221.00
2271.00
2327.00
2371.00
2423.00
2469.00
2521.00
2576.00
2625.00
2672.00
2709.00
2737.00
2769.00
2799.00
2814.00
2825.00
2832.00
2832.00
2822.00
2810.00
2784.00
2768.00
2743.00
2705.00
2677.00
2647.00
2609.00
2578.00
2544.00
2513.00
2497.00
2448.00
2432.00
2412.00
2375.00
2370.00
2358.00
2327.00
2314.00
2300.00
2288.00
2274.00
2256.00
2256.00
2241.00
2226.00
2214.00
2199.00
2188.00
2170.00
2167.00
2156.00
2143.00
2141.00
2129.00
2126.00
2113.00
2106.00
2096.00
2082.00
2069.00
2061.00
2047.00
2031.00
2021.00
2020.00
2018.00
2013.00
2010.00
1987.00
1985.00
1984.00
1978.00
1969.00
1951.00
1952.00
1943.00
1939.00
1939.00
1940.00
1927.00
1935.00
1915.00
1916.00
1918.00
1920.00
1921.00
1923.00
1920.00
1920.00
1918.00
1908.00
1914.00
1911.00
1904.00
1902.00
1902.00
1913.00
1903.00
1904.00
1905.00
1903.00
1891.00
1884.00
1897.00
1907.00
1914.00
1931.00
1939.00
1949.00
1958.00
1962.00
1964.00
1980.00
1985.00
1987.00
1991.00
1991.00
1978.00
1984.00
1994.00
1994.00
1984.00
1974.00
1973.00
1963.00
1953.00
1959.00
1954.00
1947.00
1933.00
1939.00
1946.00
1943.00
1943.00
1945.00
1947.00
1953.00
1955.00
1953.00
1950.00
1942.00
1939.00
1948.00
1942.00
1936.00
1923.00
1921.00
1911.00
1917.00
1927.00
1937.00
1909.00
1865.00
1858.00
1936.00
1955.00
1965.00
1952.00
1964.00
1964.00
1967.00
1965.00
1955.00
1935.00
1947.00
1967.00
1953.00
1940.00
1936.00
1927.00
1927.00
1902.00
1903.00
1902.00
1875.00
1920.00
1932.00
1935.00
1923.00
1947.00
1936.00
1942.00
1953.00
1948.00
1946.00
1948.00
1969.00
1968.00
1967.00
1966.00
1970.00
1981.00
1968.00
1982.00
1972.00
1959.00
1942.00
1910.00
1903.00
1873.00
1862.00
1845.00
1826.00
1808.00
1805.00
1800.00
1789.00
1770.00
1794.00
1808.00
1809.00
1808.00
1799.00
1801.00
1778.00
1795.00
1798.00
1808.00
1831.00
1840.00
1846.00
1846.00
1865.00
1859.00
1871.00
1870.00
1875.00
1886.00
1892.00
1902.00
1899.00
1910.00
1907.00
1904.00
1903.00
1901.00
1893.00
1890.00
1875.00
1897.00
1898.00
1887.00
1910.00
1927.00
1919.00
1919.00
1922.00
1926.00
1918.00
1921.00
1913.00
1918.00
1920.00
1909.00
1920.00
1919.00
1910.00
1907.00
1909.00
1914.00
1906.00
1904.00
1900.00
1896.00
1895.00
1894.00
1906.00
1919.00
1924.00
1923.00
1923.00
1936.00
1932.00
1925.00
1927.00
1901.00
1904.00
1915.00
1914.00
1914.00
1924.00
1931.00
1926.00
1920.00
1918.00
1920.00
1925.00
1918.00
1923.00
1926.00
1927.00
1921.00
1925.00
1920.00
1919.00
1911.00
1922.00
1919.00
1926.00
1914.00
1913.00
1917.00
1909.00
1914.00
1911.00
1919.00
1920.00
1903.00
1904.00
1910.00
1918.00
1919.00
1927.00
1949.00
1967.00
1954.00
1926.00
1914.00
1894.00
1876.00
1856.00
1827.00
1787.00
1754.00
1711.00
1664.00
1634.00
1599.00
1557.00
1514.00
1472.00
1417.00
1377.00
1331.00
1296.00
1243.00
1191.00
1142.00
1087.00
1037.00
983.00
942.00
898.00
864.00
831.00
809.00
786.00
769.00
764.00
752.00
753.00
754.00
755.00
769.00
787.00
812.00
865.00
893.00
939.00
983.00
1035.00
1079.00
1131.00
1171.00
1222.00
1263.00
1303.00
1345.00
1387.00
1423.00
1456.00
1485.00
1517.00
1552.00
1578.00
1601.00
1625.00
1657.00
1667.00
1680.00
1703.00
1719.00
1734.00
1744.00
1759.00
1776.00
1786.00
1795.00
1811.00
1827.00
1838.00
1844.00
1850.00
1841.00
1849.00
1858.00
1867.00
1878.00
1883.00
1889.00
1894.00
1904.00
1904.00
1904.00
1904.00
1915.00
1919.00
1929.00
1932.00
1927.00
1927.00
1933.00
1930.00
1930.00
1927.00
1918.00
1907.00
1922.00
1949.00
1973.00
2004.00
2039.00
2077.00
2112.00
2140.00
2160.00
2172.00
2182.00
2191.00
2197.00
2201.00
2207.00
2197.00
2190.00
2182.00
2164.00
2157.00
2137.00
2128.00
2113.00
2096.00
2087.00
2071.00
2067.00
2062.00
2047.00
2047.00
2046.00
2041.00
2035.00
2035.00
2032.00
2032.00
2021.00
2017.00
2016.00
2003.00
2002.00
2000.00
1998.00
1998.00
2000.00
1993.00
1990.00
1983.00
1979.00
1969.00
1967.00
1957.00
1953.00
1947.00
1941.00
1935.00
1935.00
1930.00
1931.00
1935.00
1935.00
1936.00
1951.00
1963.00
1946.00
1924.00
1899.00
1874.00
1847.00
1821.00
1799.00
1780.00
1761.00
1749.00
1750.00
1744.00
1744.00
1750.00
1754.00
1763.00
1774.00
1782.00
1802.00
1814.00
1822.00
1827.00
1840.00
1837.00
1840.00
1840.00
1840.00
1845.00
1850.00
1850.00
1858.00
1860.00
1865.00
1871.00
1876.00
1879.00
1885.00
1891.00
1882.00
1881.00
1878.00
1885.00
1886.00
1889.00
1893.00
1891.00
1897.00
1902.00
1904.00
1912.00
1916.00
1911.00
1909.00
1907.00
1904.00
1904.00
1906.00
1907.00
1904.00
1909.00
1909.00
1913.00
1917.00
1920.00
1922.00
1910.00
1921.00
1916.00
1910.00
1904.00
1914.00
1922.00
1922.00
1930.00
1927.00
1927.00
1929.00
1935.00
1931.00
1936.00
1940.00
1943.00
1939.00
1936.00
1936.00
1933.00
1930.00
1929.00
1920.00
1907.00
1913.00
1913.00
1915.00
1919.00
1920.00
1920.00
1930.00
1933.00
1933.00
1935.00
1933.00
1934.00
1931.00
1927.00
1930.00
1931.00
1932.00
1933.00
1929.00
1921.00
1916.00
1910.00
1904.00
1903.00
1903.00
1903.00
1904.00
1905.00
1904.00
1898.00
1895.00
1894.00
1898.00
1894.00
1898.00
1891.00
1899.00
1901.00
1901.00
1902.00
1901.00
1903.00
1901.00
1904.00
1900.00
1883.00
1867.00
1857.00
1846.00
1819.00
1794.00
1770.00
1737.00
1706.00
1677.00
1649.00
1627.00
1616.00
1607.00
1605.00
1604.00
1603.00
1611.00
1612.00
1616.00
1629.00
1645.00
1654.00
1675.00
1695.00
1714.00
1723.00
1742.00
1751.00
1770.00
1770.00
1775.00
1789.00
1782.00
1802.00
1823.00
1839.00
1847.00
1833.00
1808.00
1787.00
1773.00
1729.00
1717.00
1693.00
1638.00
1584.00
1530.00
1488.00
1463.00
1442.00
1396.00
1359.00
1340.00
1318.00
1295.00
1279.00
1277.00
1262.00
1247.00
1232.00
1232.00
1232.00
1230.00
1229.00
1228.00
1229.00
1237.00
1251.00
1264.00
1279.00
1301.00
1317.00
1357.00
1360.00
1393.00
1395.00
1399.00
1424.00
1459.00
1467.00
1470.00
1480.00
1481.00
1488.00
1493.00
1494.00
1509.00
1525.00
1552.00
1577.00
1581.00
1590.00
1615.00
1622.00
1648.00
1655.00
1680.00
1693.00
1719.00
1713.00
1729.00
1745.00
1771.00
1787.00
1810.00
1809.00
1816.00
1823.00
1837.00
1847.00
1851.00
1859.00
1872.00
1872.00
1893.00
1914.00
1907.00
1920.00
1925.00
1926.00
1920.00
1920.00
1912.00
1926.00
1933.00
1947.00
1968.00
1950.00
1953.00
1956.00
1958.00
1957.00
1954.00
1956.00
1952.00
1952.00
1946.00
1945.00
1952.00
1966.00
1963.00
1959.00
1959.00
1949.00
1949.00
1949.00
1952.00
1957.00
1956.00
1952.00
1938.00
1939.00
1936.00
1938.00
1949.00
1937.00
1937.00
1923.00
1929.00
1933.00
1935.00
1946.00
1953.00
1949.00
1945.00
1952.00
1939.00
1942.00
1946.00
1946.00
1945.00
1945.00
1938.00
1935.00
1936.00
1941.00
1933.00
1920.00
1917.00
1915.00
1919.00
1920.00
1925.00
1923.00
1919.00
1923.00
1928.00
1914.00
1906.00
1906.00
1907.00
1918.00
1915.00
1910.00
1915.00
1921.00
1909.00
1904.00
1905.00
1908.00
1905.00
1904.00
1907.00
1906.00
1904.00
1903.00
1904.00
1905.00
1899.00
1901.00
1905.00
1904.00
1909.00
1904.00
1909.00
1905.00
1904.00
1904.00
1899.00
1893.00
1894.00
1904.00
1910.00
1921.00
1933.00
1936.00
1937.00
1936.00
1928.00
1922.00
1919.00
1915.00
1917.00
1921.00
1924.00
1923.00
1920.00
1926.00
1918.00
1917.00
1916.00
1920.00
1916.00
1904.00
1898.00
1898.00
1914.00
1926.00
1935.00
1941.00
1961.00
1975.00
1988.00
2012.00
2015.00
2018.00
2022.00
2023.00
2026.00
2030.00
2030.00
2033.00
2035.00
2036.00
2032.00
2031.00
2027.00
2029.00
2030.00
2021.00
2007.00
1997.00
1986.00
1993.00
1975.00
1978.00
1962.00
1959.00
1949.00
1942.00
1942.00
1941.00
1948.00
1949.00
1942.00
1936.00
1939.00
1937.00
1949.00
1939.00
1933.00
1931.00
1927.00
1927.00
1925.00
1925.00
1931.00
1936.00
1937.00
1937.00
1938.00
1947.00
1938.00
1936.00
1936.00
1936.00
1936.00
1941.00
1937.00
1938.00
1934.00
1930.00
1931.00
1929.00
1931.00
1922.00
1919.00
1922.00
1923.00
1919.00
1926.00
1932.00
1932.00
1929.00
1927.00
1930.00
1931.00
1936.00
1928.00
1931.00
1923.00
1940.00
1933.00
1930.00
1927.00
1930.00
1929.00
1936.00
1939.00
1939.00
1946.00
1946.00
1946.00
1942.00
1941.00
1936.00
1925.00
1919.00
1923.00
1919.00
1916.00
1918.00
1911.00
1906.00
1907.00
1910.00
1913.00
1914.00
1911.00
1905.00
1904.00
1903.00
1892.00
1877.00
1870.00
1890.00
1915.00
1940.00
1963.00
2000.00
2023.00
2062.00
2089.00
2107.00
2119.00
2131.00
2146.00
2152.00
2151.00
2138.00
2134.00
2125.00
2119.00
2113.00
2107.00
2097.00
2087.00
2070.00
2062.00
2045.00
2032.00
2026.00
2015.00
2009.00
2006.00
2000.00
1991.00
1983.00
1977.00
1971.00
1968.00
1968.00
1961.00
1966.00
1969.00
1968.00
1967.00
1965.00
1962.00
1956.00
1951.00
1938.00
1936.00
1936.00
1935.00
1937.00
1936.00
1938.00
1937.00
1936.00
1937.00
1942.00
1946.00
1943.00
1939.00
1941.00
1943.00
1943.00
1934.00
1931.00
1931.00
1927.00
1919.00
1920.00
1914.00
1906.00
1904.00
1903.00
1903.00
1906.00
1909.00
1904.00
1902.00
1904.00
1898.00
1901.00
1904.00
1895.00
1897.00
1902.00
1896.00
1897.00
1898.00
1892.00
1891.00
1899.00
1901.00
1909.00
1915.00
1915.00
1918.00
1916.00
1930.00
1915.00
1930.00
1916.00
1904.00
1909.00
1936.00
1958.00
1983.00
2018.00
2059.00
2107.00
2151.00
2193.00
2247.00
2288.00
2329.00
2378.00
2418.00
2458.00
2496.00
2534.00
2579.00
2609.00
2637.00
2659.00
2683.00
2704.00
2735.00
2765.00
2786.00
2802.00
2832.00
2835.00
2841.00
2839.00
2837.00
2834.00
2831.00
2813.00
2800.00
2773.00
2743.00
2722.00
2694.00
2669.00
2640.00
2615.00
2597.00
2573.00
2539.00
2509.00
2471.00
2439.00
2415.00
2384.00
2353.00
2322.00
2292.00
2262.00
2234.00
2203.00
2181.00
2165.00
2143.00
2127.00
2106.00
2089.00
2069.00
2059.00
2042.00
2031.00
2022.00
2015.00
2002.00
2007.00
1987.00
1987.00
1981.00
1973.00
1965.00
1955.00
1946.00
1941.00
1939.00
1942.00
1942.00
1949.00
1936.00
1947.00
1936.00
1957.00
1981.00
1991.00
2002.00
2023.00
2053.00
2063.00
2065.00
2073.00
2080.00
2088.00
2084.00
2079.00
2070.00
2063.00
2047.00
2037.00
2027.00
2012.00
2009.00
1999.00
2000.00
2000.00
1991.00
1986.00
1973.00
1978.00
1975.00
1969.00
1968.00
1963.00
1966.00
1961.00
1966.00
1967.00
1968.00
1973.00
1971.00
1968.00
1971.00
1970.00
1972.00
1974.00
1972.00
1968.00
1968.00
1969.00
1968.00
1962.00
1959.00
1950.00
1940.00
1936.00
1927.00
1923.00
1917.00
1909.00
1910.00
1914.00
1904.00
1904.00
1904.00
1906.00
1906.00
1907.00
1909.00
1911.00
1911.00
1904.00
1906.00
1905.00
1916.00
1906.00
1906.00
1904.00
1905.00
1907.00
1917.00
1915.00
1919.00
1917.00
1917.00
1911.00
1915.00
1919.00
1917.00
1910.00
1907.00
1907.00
1911.00
1908.00
1915.00
1920.00
1920.00
1919.00
1927.00
1929.00
1932.00
1931.00
1933.00
1934.00
1930.00
1933.00
1936.00
1931.00
1927.00
1915.00
1907.00
1904.00
1905.00
1905.00
1904.00
1904.00
1911.00
1913.00
1908.00
1904.00
1904.00
1904.00
1905.00
1915.00
1920.00
1924.00
1929.00
1931.00
1931.00
1924.00
1923.00
1921.00
1920.00
1923.00
1918.00
1911.00
1904.00
1901.00
1901.00
1898.00
1897.00
1892.00
1893.00
1893.00
1901.00
1900.00
1906.00
1904.00
1906.00
1908.00
1908.00
1917.00
1914.00
1913.00
1920.00
1920.00
1927.00
1930.00
1934.00
1933.00
1929.00
1922.00
1936.00
1953.00
1969.00
1993.00
2023.00
2071.00
2113.00
2155.00
2201.00
2247.00
2284.00
2320.00
2348.00
2363.00
2363.00
2369.00
2368.00
2354.00
2350.00
2337.00
2321.00
2310.00
2290.00
2274.00
2251.00
2235.00
2215.00
2195.00
2176.00
2159.00
2138.00
2123.00
2110.00
2100.00
2086.00
2074.00
2064.00
2047.00
2034.00
2025.00
2006.00
2003.00
2002.00
1998.00
1994.00
1990.00
1980.00
1969.00
1964.00
1957.00
1955.00
1950.00
1946.00
1945.00
1946.00
1943.00
1939.00
1940.00
1931.00
1932.00
1936.00
1942.00
1942.00
1939.00
1935.00
1930.00
1933.00
1923.00
1918.00
1910.00
1907.00
1905.00
1890.00
1879.00
1882.00
1883.00
1878.00
1885.00
1907.00
1919.00
1904.00
1905.00
1927.00
1916.00
1927.00
1923.00
1935.00
1958.00
1968.00
1990.00
2026.00
2065.00
2086.00
2111.00
2145.00
2172.00
2192.00
2237.00
2258.00
2285.00
2323.00
2353.00
2382.00
2406.00
2432.00
2450.00
2470.00
2491.00
2499.00
2527.00
2542.00
2537.00
2542.00
2535.00
2523.00
2521.00
2530.00
2515.00
2512.00
2507.00
2487.00
2469.00
2455.00
2461.00
2431.00
2407.00
2386.00
2352.00
2351.00
2341.00
2326.00
2307.00
2294.00
2287.00
2272.00
2249.00
2237.00
2229.00
2222.00
2203.00
2182.00
2176.00
2165.00
2141.00
2128.00
2117.00
2110.00
2096.00
2081.00
2078.00
2060.00
2032.00
2015.00
2001.00
1995.00
1982.00
1981.00
1979.00
1979.00
1982.00
1972.00
1968.00
1957.00
1943.00
1947.00
1936.00
1931.00
1924.00
1915.00
1895.00
1898.00
1875.00
1872.00
1870.00
1872.00
1872.00
1873.00
1863.00
1865.00
1855.00
1858.00
1862.00
1855.00
1840.00
1851.00
1849.00
1845.00
1847.00
1855.00
1853.00
1840.00
1857.00
1861.00
1862.00
1870.00
1872.00
1871.00
1895.00
1899.00
1904.00
1899.00
1900.00
1901.00
1904.00
1904.00
1904.00
1904.00
1908.00
1916.00
1921.00
1918.00
1917.00
1908.00
1904.00
1903.00
1911.00
1904.00
1902.00
1909.00
1914.00
1904.00
1904.00
1904.00
1906.00
1903.00
1906.00
1905.00
1902.00
1905.00
1919.00
1923.00
1927.00
1936.00
1941.00
1938.00
1938.00
1943.00
1943.00
1947.00
1947.00
1947.00
1935.00
1930.00
1930.00
1922.00
1922.00
1925.00
1920.00
1922.00
1915.00
1915.00
1923.00
1927.00
1931.00
1931.00
1937.00
1930.00
1933.00
1938.00
1930.00
1931.00
1920.00
1918.00
1920.00
1919.00
1920.00
1917.00
1916.00
1916.00
1915.00
1927.00
1921.00
1917.00
1922.00
1921.00
1922.00
1921.00
1920.00
1925.00
1930.00
1936.00
1939.00
1938.00
1935.00
1936.00
1938.00
1941.00
1946.00
1937.00
1927.00
1931.00
1936.00
1934.00
1929.00
1926.00
1919.00
1919.00
1922.00
1917.00
1920.00
1920.00
1917.00
1931.00
1939.00
1939.00
1952.00
1936.00
1950.00
1949.00
1952.00
1950.00
1947.00
1953.00
1957.00
1958.00
1955.00
1949.00
1950.00
1943.00
1943.00
1943.00
1939.00
1936.00
1936.00
1935.00
1933.00
1929.00
1931.00
1935.00
1934.00
1929.00
1931.00
1936.00
1936.00
1936.00
1936.00
1936.00
1933.00
1930.00
1930.00
1929.00
1934.00
1932.00
1935.00
1934.00
1930.00
1927.00
1934.00
1936.00
1941.00
1946.00
1949.00
1946.00
1942.00
1949.00
1952.00
1961.00
1969.00
1981.00
1970.00
1949.00
1922.00
1907.00
1874.00
1844.00
1811.00
1789.00
1772.00
1755.00
1744.00
1737.00
1731.00
1733.00
1739.00
1742.00
1745.00
1745.00
1755.00
1767.00
1776.00
1792.00
1791.00
1796.00
1799.00
1808.00
1818.00
1818.00
1813.00
1814.00
1814.00
1818.00
1826.00
1839.00
1844.00
1852.00
1857.00
1856.00
1862.00
1870.00
1872.00
1887.00
1891.00
1907.00
1934.00
1933.00
1901.00
1874.00
1867.00
1841.00
1826.00
1783.00
1761.00
1733.00
1701.00
1662.00
1634.00
1600.00
1573.00
1531.00
1494.00
1458.00
1419.00
1379.00
1341.00
1310.00
1277.00
1253.00
1225.00
1195.00
1175.00
1153.00
1137.00
1122.00
1111.00
1103.00
1089.00
1087.00
1085.00
1087.00
1090.00
1104.00
1121.00
1138.00
1165.00
1183.00
1212.00
1242.00
1271.00
1302.00
1341.00
1374.00
1410.00
1430.00
1466.00
1500.00
1524.00
1558.00
1587.00
1615.00
1631.00
1654.00
1675.00
1690.00
1701.00
1713.00
1722.00
1735.00
1747.00
1757.00
1771.00
1778.00
1789.00
1798.00
1807.00
1809.00
1836.00
1857.00
1883.00
1904.00
1919.00
1937.00
1952.00
1958.00
1968.00
1971.00
1973.00
1974.00
1975.00
1971.00
1969.00
1970.00
1967.00
1969.00
1968.00
1967.00
1955.00
1953.00
1943.00
1946.00
1941.00
1939.00
1936.00
1938.00
1936.00
1935.00
1929.00
1931.00
1936.00
1935.00
1930.00
1927.00
1923.00
1930.00
1935.00
1931.00
1925.00
1931.00
1933.00
1933.00
1931.00
1937.00
1948.00
1949.00
1945.00
1936.00
1931.00
1924.00
1918.00
1916.00
1910.00
1908.00
1915.00
1915.00
1918.00
1919.00
1925.00
1925.00
1927.00
1931.00
1931.00
1931.00
1925.00
1928.00
1934.00
1933.00
1936.00
1942.00
1943.00
1951.00
1959.00
1957.00
1968.00
1966.00
1966.00
1968.00
1958.00
1952.00
1944.00
1936.00
1928.00
1930.00
1930.00
1923.00
1923.00
1927.00
1921.00
1929.00
1933.00
1929.00
1931.00
1926.00
1931.00
1931.00
1936.00
1931.00
1935.00
1939.00
1936.00
1945.00
1939.00
1937.00
1943.00
1946.00
1951.00
1952.00
1950.00
1951.00
1950.00
1949.00
1953.00
1952.00
1946.00
1948.00
1946.00
1947.00
1945.00
1943.00
1948.00
1945.00
1943.00
1936.00
1936.00
1936.00
1936.00
1936.00
1935.00
1936.00
1937.00
1934.00
1922.00
1917.00
1918.00
1915.00
1918.00
1919.00
1920.00
1920.00
1910.00
1917.00
1923.00
1923.00
1922.00
1926.00
1934.00
1935.00
1936.00
1935.00
1936.00
1939.00
1937.00
1939.00
1937.00
1937.00
1936.00
1933.00
1934.00
1927.00
1922.00
1923.00
1926.00
1926.00
1921.00
1921.00
1915.00
1914.00
1923.00
1916.00
1913.00
1915.00
1920.00
1925.00
1928.00
1933.00
1931.00
1936.00
1936.00
1940.00
1941.00
1940.00
1934.00
1927.00
1918.00
1906.00
1901.00
1895.00
1893.00
1895.00
1895.00
1899.00
1901.00
1909.00
1906.00
1909.00
1909.00
1909.00
1907.00
1909.00
1912.00
1909.00
1910.00
1913.00
1913.00
1911.00
1911.00
1920.00
1927.00
1927.00
1936.00
1936.00
1929.00
1927.00
1921.00
1922.00
1921.00
1931.00
1933.00
1936.00
1936.00
1936.00
1936.00
1937.00
1947.00
1940.00
1947.00
1953.00
1952.00
1952.00
1949.00
1953.00
1955.00
1955.00
1943.00
1936.00
1932.00
1927.00
1918.00
1920.00
1933.00
1921.00
1915.00
1917.00
1915.00
1917.00
1919.00
1914.00
1904.00
1911.00
1908.00
1904.00
1895.00
1911.00
1914.00
1915.00
1917.00
1920.00
1917.00
1914.00
1911.00
1911.00
1907.00
1911.00
1905.00
1904.00
1907.00
1909.00
1919.00
1930.00
1934.00
1939.00
1950.00
1957.00
1958.00
1961.00
1963.00
1961.00
1955.00
1950.00
1950.00
1947.00
1942.00
1936.00
1934.00
1933.00
1927.00
1921.00
1911.00
1910.00
1907.00
1909.00
1917.00
1915.00
1909.00
1904.00
1901.00
1898.00
1896.00
1895.00
1899.00
1904.00
1902.00
1902.00
1904.00
1907.00
1905.00
1904.00
1906.00
1905.00
1902.00
1894.00
1897.00
1904.00
1905.00
1905.00
1914.00
1911.00
1913.00
1915.00
1915.00
1906.00
1904.00
1904.00
1904.00
1905.00
1905.00
1904.00
1904.00
1901.00
1893.00
1893.00
1894.00
1888.00
1879.00
1873.00
1872.00
1872.00
1873.00
1878.00
1886.00
1894.00
1903.00
1904.00
1904.00
1910.00
1914.00
1922.00
1920.00
1927.00
1925.00
1925.00
1925.00
1922.00
1921.00
1918.00
1918.00
1915.00
1920.00
1923.00
1920.00
1920.00
1922.00
1919.00
1922.00
1915.00
1911.00
1914.00
1918.00
1921.00
1919.00
1916.00
1911.00
1904.00
1904.00
1908.00
1904.00
1902.00
1900.00
1894.00
1902.00
1904.00
1904.00
1904.00
1905.00
1909.00
1911.00
1919.00
1922.00
1926.00
1933.00
1937.00
1936.00
1936.00
1935.00
1931.00
1936.00
1939.00
1937.00
1939.00
1947.00
1944.00
1939.00
1936.00
1938.00
1938.00
1936.00
1941.00
1930.00
1931.00
1935.00
1935.00
1931.00
1934.00
1936.00
1936.00
1939.00
1941.00
1936.00
1941.00
1943.00
1939.00
1933.00
1934.00
1927.00
1927.00
1923.00
1920.00
1927.00
1927.00
1921.00
1921.00
1921.00
1920.00
1923.00
1928.00
1933.00
1936.00
1931.00
1927.00
1920.00
1919.00
1909.00
1907.00
1903.00
1899.00
1899.00
1895.00
1895.00
1906.00
1929.00
1889.00
1867.00
1857.00
1893.00
1904.00
1936.00
1943.00
1950.00
1973.00
1987.00
1998.00
2011.00
2031.00
2033.00
2036.00
2032.00
2014.00
2001.00
1993.00
1979.00
1962.00
1957.00
1939.00
1921.00
1916.00
1910.00
1903.00
1894.00
1887.00
1882.00
1874.00
1870.00
1866.00
1862.00
1870.00
1875.00
1872.00
1873.00
1877.00
1880.00
1891.00
1899.00
1892.00
1892.00
1889.00
1888.00
1893.00
1895.00
1898.00
1899.00
1902.00
1906.00
1911.00
1917.00
1919.00
1911.00
1909.00
1904.00
1904.00
1904.00
1916.00
1914.00
1915.00
1911.00
1912.00
1916.00
1915.00
1914.00
1910.00
1919.00
1918.00
1917.00
1920.00
1925.00
1927.00
1934.00
1936.00
1936.00
1936.00
1936.00
1939.00
1941.00
1936.00
1935.00
1936.00
1937.00
1936.00
1936.00
1936.00
1936.00
1937.00
1941.00
1942.00
1941.00
1942.00
1946.00
1946.00
1948.00
1949.00
1946.00
1942.00
1937.00
1933.00
1934.00
1927.00
1923.00
1920.00
1922.00
1930.00
1930.00
1933.00
1938.00
1936.00
1931.00
1927.00
1920.00
1921.00
1920.00
1926.00
1931.00
1937.00
1937.00
1939.00
1942.00
1948.00
1946.00
1947.00
1955.00
1949.00
1952.00
1950.00
1946.00
1941.00
1945.00
1946.00
1945.00
1947.00
1946.00
1947.00
1951.00
1947.00
1944.00
1938.00
1926.00
1925.00
1914.00
1913.00
1908.00
1907.00
1909.00
1913.00
1914.00
1918.00
1916.00
1919.00
1925.00
1933.00
1934.00
1931.00
1929.00
1926.00
1936.00
1936.00
1940.00
1939.00
1926.00
1921.00
1920.00
1921.00
1920.00
1920.00
1922.00
1919.00
1920.00
1917.00
1914.00
1919.00
1917.00
1918.00
1917.00
1909.00
1904.00
1909.00
1907.00
1910.00
1904.00
1897.00
1904.00
1902.00
1895.00
1903.00
1909.00
1911.00
1906.00
1882.00
1866.00
1834.00
1797.00
1754.00
1712.00
1661.00
1597.00
1535.00
1488.00
1423.00
1361.00
1307.00
1243.00
1185.00
1131.00
1077.00
1040.00
999.00
967.00
944.00
925.00
906.00
903.00
896.00
903.00
930.00
943.00
954.00
970.00
992.00
1007.00
1037.00
1055.00
1078.00
1109.00
1125.00
1146.00
1177.00
1205.00
1236.00
1264.00
1291.00
1319.00
1349.00
1351.00
1349.00
1360.00
1378.00
1392.00
1405.00
1410.00
1444.00
1466.00
1476.00
1492.00
1518.00
1552.00
1563.00
1576.00
1584.00
1607.00
1618.00
1622.00
1639.00
1637.00
1649.00
1660.00
1665.00
1683.00
1709.00
1714.00
1715.00
1714.00
1731.00
1745.00
1751.00
1759.00
1781.00
1792.00
1790.00
1792.00
1794.00
1808.00
1813.00
1823.00
1824.00
1830.00
1840.00
1840.00
1853.00
1856.00
1866.00
1875.00
1879.00
1887.00
1887.00
1892.00
1897.00
1903.00
1888.00
1891.00
1900.00
1895.00
1894.00
1889.00
1886.00
1892.00
1893.00
1907.00
1900.00
1907.00
1922.00
1926.00
1926.00
1934.00
1936.00
1930.00
1931.00
1930.00
1935.00
1934.00
1936.00
1936.00
1926.00
1927.00
1932.00
1926.00
1929.00
1930.00
1929.00
1933.00
1914.00
1917.00
1914.00
1914.00
1914.00
1921.00
1922.00
1924.00
1921.00
1918.00
1926.00
1924.00
1899.00
1901.00
1885.00
1872.00
1860.00
1843.00
1838.00
1824.00
1821.00
1814.00
1810.00
1809.00
1808.00
1822.00
1838.00
1847.00
1851.00
1854.00
1855.00
1859.00
1858.00
1863.00
1869.00
1863.00
1865.00
1858.00
1866.00
1867.00
1858.00
1873.00
1873.00
1885.00
1875.00
1872.00
1875.00
1879.00
1894.00
1891.00
1890.00
1888.00
1893.00
1900.00
1904.00
1890.00
1891.00
1890.00
1887.00
1898.00
1904.00
1898.00
1887.00
1883.00
1882.00
1885.00
1889.00
1879.00
1882.00
1883.00
1898.00
1903.00
1907.00
1919.00
1915.00
1917.00
1919.00
1915.00
1922.00
1930.00
1922.00
1922.00
1920.00
1923.00
1917.00
1915.00
1924.00
1934.00
1935.00
1934.00
1933.00
1933.00
1936.00
1925.00
1911.00
1901.00
1898.00
1923.00
1949.00
1979.00
2000.00
2038.00
2062.00
2074.00
2089.00
2103.00
2113.00
2113.00
2112.00
2111.00
2117.00
2094.00
2083.00
2083.00
2083.00
2079.00
2080.00
2074.00
2064.00
2059.00
2038.00
2032.00
2015.00
2000.00
1999.00
1985.00
1984.00
1970.00
1968.00
1968.00
1959.00
1954.00
1953.00
1951.00
1942.00
1942.00
1936.00
1936.00
1942.00
1936.00
1937.00
1929.00
1919.00
1913.00
1912.00
1911.00
1912.00
1913.00
1905.00
1903.00
1904.00
1904.00
1915.00
1911.00
1915.00
1914.00
1913.00
1913.00
1911.00
1917.00
1918.00
1922.00
1924.00
1909.00
1899.00
1902.00
1914.00
1926.00
1948.00
1967.00
1958.00
1963.00
1959.00
1968.00
1968.00
1972.00
1970.00
1965.00
1946.00
1946.00
1957.00
1959.00
1958.00
1945.00
1951.00
1951.00
1948.00
1940.00
1947.00
1940.00
1936.00
1938.00
1941.00
1937.00
1939.00
1933.00
1936.00
1936.00
1936.00
1949.00
1950.00
1947.00
1941.00
1951.00
1947.00
1933.00
1934.00
1927.00
1917.00
1921.00
1929.00
1927.00
1927.00
1925.00
1925.00
1933.00
1931.00
1925.00
1918.00
1924.00
1927.00
1927.00
1926.00
1930.00
1931.00
1925.00
1920.00
1919.00
1922.00
1921.00
1922.00
1918.00
1919.00
1922.00
1929.00
1931.00
1934.00
1936.00
1935.00
1936.00
1937.00
1938.00
1936.00
1935.00
1930.00
1929.00
1936.00
1949.00
1934.00
1938.00
1935.00
1935.00
1936.00
1934.00
1930.00
1927.00
1929.00
1923.00
1931.00
1930.00
1920.00
1914.00
1919.00
1910.00
1909.00
1915.00
1906.00
1906.00
1904.00
1906.00
1907.00
1906.00
1904.00
1904.00
1907.00
1910.00
1923.00
1919.00
1924.00
1927.00
1925.00
1919.00
1930.00
1923.00
1921.00
1918.00
1919.00
1922.00
1921.00
1929.00
1930.00
1942.00
1941.00
1945.00
1936.00
1936.00
1924.00
1913.00
1906.00
1923.00
1933.00
1935.00
1932.00
1946.00
1968.00
1979.00
1998.00
2005.00
2008.00
2007.00
2014.00
2011.00
2007.00
2013.00
2014.00
2015.00
2010.00
2004.00
2009.00
2005.00
2005.00
1999.00
1997.00
2000.00
1995.00
1986.00
1985.00
1977.00
1969.00
1969.00
1963.00
1966.00
1958.00
1953.00
1947.00
1949.00
1947.00
1945.00
1943.00
1937.00
1934.00
1934.00
1937.00
1939.00
1936.00
1936.00
1936.00
1934.00
1934.00
1933.00
1933.00
1930.00
1917.00
1901.00
1899.00
1935.00
1968.00
2006.00
2060.00
2111.00
2173.00
2224.00
2288.00
2362.00
2422.00
2494.00
2554.00
2619.00
2683.00
2736.00
2791.00
2814.00
2827.00
2829.00
2820.00
2800.00
2783.00
2755.00
2730.00
2698.00
2667.00
2633.00
2597.00
2559.00
2525.00
2490.00
2464.00
2442.00
2413.00
2383.00
2356.00
2330.00
2305.00
2279.00
2259.00
2235.00
2218.00
2193.00
2171.00
2157.00
2144.00
2126.00
2109.00
2090.00
2073.00
2064.00
2039.00
2032.00
2025.00
2011.00
2000.00
1994.00
1983.00
1978.00
1965.00
1952.00
1947.00
1945.00
1935.00
1930.00
1925.00
1918.00
1910.00
1904.00
1905.00
1906.00
1904.00
1906.00
1900.00
1897.00
1903.00
1898.00
1902.00
1901.00
1910.00
1936.00
1955.00
1985.00
2013.00
2040.00
2085.00
2125.00
2145.00
2170.00
2190.00
2193.00
2198.00
2206.00
2202.00
2205.00
2198.00
2192.00
2186.00
2175.00
2155.00
2134.00
2125.00
2110.00
2097.00
2089.00
2078.00
2066.00
2057.00
2047.00
2042.00
2035.00
2030.00
2027.00
2017.00
2003.00
2000.00
2016.00
2035.00
2064.00
2077.00
2107.00
2125.00
2160.00
2192.00
2215.00
2241.00
2256.00
2263.00
2285.00
2296.00
2309.00
2320.00
2327.00
2313.00
2306.00
2305.00
2299.00
2291.00
2283.00
2256.00
2235.00
2219.00
2196.00
2180.00
2157.00
2128.00
2113.00
2096.00
2068.00
2045.00
2032.00
2017.00
2007.00
2000.00
1991.00
1982.00
1975.00
1968.00
1957.00
1952.00
1942.00
1933.00
1925.00
1919.00
1920.00
1915.00
1909.00
1911.00
1919.00
1919.00
1924.00
1926.00
1922.00
1925.00
1927.00
1921.00
1920.00
1921.00
1929.00
1926.00
1930.00
1932.00
1930.00
1922.00
1935.00
1955.00
1969.00
1993.00
2019.00
2056.00
2081.00
2112.00
2155.00
2182.00
2202.00
2217.00
2224.00
2246.00
2247.00
2277.00
2288.00
2288.00
2288.00
2284.00
2270.00
2258.00
2254.00
2233.00
2220.00
2204.00
2190.00
2173.00
2163.00
2149.00
2144.00
2127.00
2108.00
2092.00
2080.00
2071.00
2064.00
2053.00
2036.00
2033.00
2034.00
2031.00
2013.00
2013.00
2004.00
1998.00
1990.00
1990.00
1993.00
1986.00
1982.00
1977.00
1969.00
1965.00
1943.00
1947.00
1947.00
1947.00
1949.00
1949.00
1947.00
1947.00
1947.00
1946.00
1948.00
1947.00
1941.00
1938.00
1936.00
1933.00
1923.00
1915.00
1910.00
1926.00
1946.00
1968.00
1998.00
2019.00
2054.00
2089.00
2125.00
2162.00
2203.00
2234.00
2255.00
2273.00
2288.00
2288.00
2287.00
2278.00
2275.00
2260.00
2250.00
2226.00
2218.00
2206.00
2190.00
2176.00
2162.00
2148.00
2129.00
2123.00
2112.00
2101.00
2093.00
2083.00
2075.00
2065.00
2054.00
2043.00
2036.00
2029.00
2018.00
2006.00
2003.00
2000.00
1998.00
1989.00
1984.00
1982.00
1970.00
1971.00
1965.00
1962.00
1962.00
1954.00
1943.00
1937.00
1935.00
1930.00
1922.00
1915.00
1910.00
1907.00
1912.00
1913.00
1914.00
1906.00
1899.00
1905.00
1917.00
1946.00
1974.00
2000.00
2025.00
2064.00
2096.00
2129.00
2160.00
2206.00
2242.00
2282.00
2327.00
2363.00
2383.00
2402.00
2433.00
2454.00
2480.00
2494.00
2507.00
2511.00
2509.00
2498.00
2482.00
2477.00
2455.00
2447.00
2419.00
2399.00
2371.00
2341.00
2321.00
2309.00
2295.00
2263.00
2250.00
2234.00
2206.00
2190.00
2166.00
2150.00
2128.00
2124.00
2111.00
2091.00
2077.00
2065.00
2046.00
2032.00
2020.00
2004.00
1995.00
1984.00
1963.00
1962.00
1951.00
1940.00
1933.00
1925.00
1922.00
1921.00
1909.00
1907.00
1907.00
1907.00
1903.00
1895.00
1890.00
1898.00
1898.00
1904.00
1903.00
1902.00
1890.00
1902.00
1904.00
1914.00
1921.00
1917.00
1917.00
1907.00
1908.00
1915.00
1919.00
1920.00
1920.00
1908.00
1923.00
1920.00
1911.00
1904.00
1895.00
1898.00
1903.00
1891.00
1881.00
1879.00
1875.00
1882.00
1893.00
1900.00
1904.00
1900.00
1905.00
1907.00
1917.00
1914.00
1906.00
1898.00
1894.00
1892.00
1899.00
1898.00
1898.00
1904.00
1904.00
1898.00
1902.00
1911.00
1918.00
1918.00
1911.00
1917.00
1911.00
1911.00
1909.00
1913.00
1911.00
1911.00
1914.00
1918.00
1920.00
1920.00
1921.00
1917.00
1923.00
1910.00
1919.00
1918.00
1926.00
1920.00
1923.00
1927.00
1926.00
1936.00
1943.00
1943.00
1935.00
1934.00
1935.00
1934.00
1919.00
1920.00
1917.00
1906.00
1905.00
1909.00
1907.00
1900.00
1897.00
1904.00
1925.00
1925.00
1891.00
1872.00
1841.00
1802.00
1745.00
1685.00
1638.00
1584.00
1568.00
1516.00
1489.00
1486.00
1486.00
1488.00
1494.00
1493.00
1506.00
1520.00
1530.00
1549.00
1565.00
1582.00
1597.00
1607.00
1618.00
1631.00
1649.00
1666.00
1683.00
1698.00
1715.00
1722.00
1730.00
1744.00
1746.00
1752.00
1755.00
1767.00
1779.00
1781.00
1783.00
1795.00
1803.00
1808.00
1822.00
1819.00
1821.00
1830.00
1840.00
1854.00
1859.00
1861.00
1863.00
1872.00
1877.00
1881.00
1882.00
1882.00
1875.00
1879.00
1878.00
1883.00
1887.00
1895.00
1894.00
1904.00
1908.00
1915.00
1919.00
1922.00
1918.00
1920.00
1920.00
1925.00
1926.00
1925.00
1923.00
1918.00
1921.00
1924.00
1926.00
1925.00
1919.00
1923.00
1921.00
1919.00
1918.00
1920.00
1922.00
1927.00
1931.00
1936.00
1936.00
1933.00
1938.00
1936.00
1951.00
1936.00
1936.00
1937.00
1939.00
1938.00
1941.00
1939.00
1935.00
1934.00
1931.00
1923.00
1915.00
1915.00
1915.00
1909.00
1914.00
1913.00
1915.00
1913.00
1920.00
1921.00
1919.00
1922.00
1925.00
1934.00
1934.00
1934.00
1938.00
1936.00
1936.00
1935.00
1930.00
1932.00
1933.00
1935.00
1937.00
1943.00
1966.00
1985.00
1973.00
1945.00
1915.00
1893.00
1861.00
1827.00
1803.00
1776.00
1743.00
1728.00
1696.00
1680.00
1651.00
1631.00
1599.00
1571.00
1543.00
1521.00
1504.00
1482.00
1457.00
1451.00
1443.00
1424.00
1417.00
1407.00
1392.00
1381.00
1382.00
1377.00
1379.00
1391.00
1399.00
1418.00
1435.00
1456.00
1475.00
1495.00
1509.00
1523.00
1552.00
1570.00
1595.00
1615.00
1631.00
1648.00
1667.00
1680.00
1703.00
1721.00
1731.00
1750.00
1759.00
1769.00
1776.00
1787.00
1795.00
1806.00
1815.00
1829.00
1847.00
1851.00
1854.00
1856.00
1859.00
1866.00
1872.00
1875.00
1874.00
1873.00
1877.00
1894.00
1890.00
1891.00
1894.00
1904.00
1909.00
1885.00
1872.00
1843.00
1821.00
1792.00
1750.00
1715.00
1687.00
1677.00
1674.00
1669.00
1669.00
1667.00
1680.00
1683.00
1690.00
1700.00
1707.00
1707.00
1714.00
1728.00
1734.00
1739.00
1747.00
1757.00
1767.00
1776.00
1783.00
1798.00
1808.00
1820.00
1828.00
1836.00
1851.00
1845.00
1856.00
1866.00
1869.00
1876.00
1881.00
1889.00
1895.00
1902.00
1905.00
1909.00
1904.00
1917.00
1918.00
1922.00
1922.00
1923.00
1917.00
1915.00
1915.00
1916.00
1910.00
1919.00
1919.00
1919.00
1919.00
1915.00
1920.00
1911.00
1911.00
1914.00
1914.00
1910.00
1911.00
1919.00
1918.00
1919.00
1915.00
1913.00
1914.00
1909.00
1907.00
1907.00
1902.00
1893.00
1894.00
1897.00
1904.00
1918.00
1918.00
1917.00
1919.00
1916.00
1915.00
1920.00
1917.00
1916.00
1920.00
1923.00
1925.00
1932.00
1935.00
1947.00
1954.00
1950.00
1949.00
1945.00
1939.00
1936.00
1938.00
1941.00
1941.00
1943.00
1945.00
1938.00
1937.00
1947.00
1955.00
1951.00
1951.00
1950.00
1950.00
1939.00
1938.00
1937.00
1935.00
1929.00
1922.00
1932.00
1936.00
1936.00
1927.00
1925.00
1924.00
1921.00
1919.00
1920.00
1913.00
1915.00
1920.00
1919.00
1921.00
1931.00
1929.00
1933.00
1933.00
1923.00
1919.00
1911.00
1904.00
1904.00
1904.00
1909.00
1915.00
1915.00
1909.00
1907.00
1907.00
1904.00
1904.00
1898.00
1891.00
1889.00
1892.00
1898.00
1898.00
1903.00
1904.00
1906.00
1906.00
1905.00
1908.00
1911.00
1909.00
1904.00
1909.00
1905.00
1909.00
1917.00
1920.00
1919.00
1920.00
1913.00
1910.00
1906.00
1903.00
1907.00
1907.00
1918.00
1921.00
1923.00
1935.00
1936.00
1930.00
1934.00
1929.00
1933.00
1925.00
1925.00
1931.00
1937.00
1937.00
1936.00
1936.00
1931.00
1934.00
1934.00
1936.00
1935.00
1936.00
1942.00
1947.00
1946.00
1945.00
1950.00
1957.00
1963.00
1965.00
1962.00
1966.00
1967.00
1961.00
1967.00
1965.00
1967.00
1966.00
1968.00
1965.00
1967.00
1966.00
1968.00
1974.00
1982.00
1990.00
1997.00
1997.00
2000.00
2000.00
2000.00
1999.00
1991.00
1986.00
1984.00
1979.00
1973.00
1975.00
1979.00
1973.00
1976.00
1972.00
1978.00
1970.00
1968.00
1968.00
1969.00
1969.00
1966.00
1963.00
1965.00
1968.00
1971.00
1973.00
1969.00
1966.00
1965.00
1954.00
1954.00
1952.00
1952.00
1954.00
1952.00
1952.00
1954.00
1959.00
1946.00
1959.00
1958.00
1959.00
1949.00
1951.00
1945.00
1951.00
1955.00
